# time (yr) north(m) east(m) up(m) northsigma(m) eastsigma(m) upsigma(m)
0.000000 0.000000 0.000000 0.000000 0.000727 0.001274 0.001356
0.002700 -0.000014 0.000006 -0.000039 0.000727 0.001274 0.001356
0.005500 -0.000028 0.000012 -0.000079 0.000728 0.001275 0.001358
0.008200 -0.000042 0.000018 -0.000117 0.000729 0.001277 0.001361
0.011000 -0.000056 0.000025 -0.000156 0.000731 0.001278 0.001364
0.013700 -0.000070 0.000031 -0.000194 0.000733 0.001281 0.001369
0.016400 -0.000083 0.000038 -0.000232 0.000735 0.001283 0.001373
0.019200 -0.000097 0.000045 -0.000271 0.000738 0.001287 0.001379
0.021900 -0.000111 0.000053 -0.000308 0.000741 0.001290 0.001385
0.024700 -0.000124 0.000060 -0.000346 0.000745 0.001294 0.001392
0.027400 -0.000137 0.000068 -0.000382 0.000749 0.001298 0.001400
0.030100 -0.000150 0.000075 -0.000418 0.000753 0.001303 0.001407
0.032900 -0.000163 0.000083 -0.000455 0.000758 0.001308 0.001415
0.035600 -0.000175 0.000090 -0.000491 0.000762 0.001313 0.001424
0.038400 -0.000187 0.000098 -0.000527 0.000767 0.001318 0.001433
0.041100 -0.000199 0.000106 -0.000561 0.000772 0.001324 0.001442
0.043800 -0.000211 0.000113 -0.000596 0.000777 0.001329 0.001451
0.046600 -0.000223 0.000121 -0.000631 0.000782 0.001335 0.001461
0.049300 -0.000234 0.000128 -0.000664 0.000788 0.001342 0.001470
0.052100 -0.000246 0.000136 -0.000698 0.000793 0.001348 0.001481
0.054800 -0.000256 0.000143 -0.000731 0.000799 0.001354 0.001491
0.057500 -0.000267 0.000150 -0.000763 0.000804 0.001361 0.001501
0.060300 -0.000278 0.000157 -0.000796 0.000810 0.001368 0.001511
0.063000 -0.000288 0.000164 -0.000828 0.000815 0.001374 0.001522
0.065800 -0.000298 0.000171 -0.000860 0.000821 0.001381 0.001533
0.068500 -0.000308 0.000178 -0.000891 0.000826 0.001388 0.001544
0.071200 -0.000318 0.000184 -0.000921 0.000832 0.001395 0.001555
0.074000 -0.000328 0.000191 -0.000953 0.000838 0.001402 0.001566
0.076700 -0.000337 0.000198 -0.000982 0.000843 0.001409 0.001577
0.079500 -0.000346 0.000204 -0.001013 0.000849 0.001416 0.001589
0.082200 -0.000355 0.000210 -0.001042 0.000855 0.001423 0.001600
0.084900 -0.000363 0.000216 -0.001071 0.000860 0.001430 0.001611
0.087700 -0.000372 0.000222 -0.001100 0.000866 0.001437 0.001623
0.090400 -0.000380 0.000228 -0.001128 0.000871 0.001444 0.001635
0.093200 -0.000389 0.000234 -0.001157 0.000877 0.001451 0.001647
0.095900 -0.000396 0.000240 -0.001184 0.000883 0.001457 0.001659
0.098600 -0.000404 0.000245 -0.001211 0.000888 0.001464 0.001670
0.101400 -0.000412 0.000251 -0.001239 0.000894 0.001471 0.001683
0.104100 -0.000419 0.000256 -0.001265 0.000899 0.001478 0.001695
0.106900 -0.000427 0.000262 -0.001293 0.000905 0.001484 0.001707
0.109600 -0.000434 0.000267 -0.001318 0.000910 0.001491 0.001720
0.112300 -0.000440 0.000272 -0.001344 0.000916 0.001497 0.001732
0.115100 -0.000447 0.000277 -0.001370 0.000921 0.001504 0.001745
0.117800 -0.000454 0.000282 -0.001395 0.000927 0.001510 0.001757
0.120600 -0.000461 0.000287 -0.001421 0.000932 0.001516 0.001770
0.123300 -0.000467 0.000292 -0.001445 0.000938 0.001522 0.001783
0.126000 -0.000473 0.000296 -0.001470 0.000943 0.001528 0.001796
0.128800 -0.000479 0.000301 -0.001494 0.000949 0.001534 0.001809
0.131500 -0.000485 0.000305 -0.001518 0.000954 0.001540 0.001822
0.134300 -0.000491 0.000310 -0.001542 0.000960 0.001546 0.001835
0.137000 -0.000496 0.000314 -0.001566 0.000965 0.001551 0.001848
0.139700 -0.000502 0.000318 -0.001588 0.000970 0.001557 0.001861
0.142500 -0.000507 0.000323 -0.001612 0.000976 0.001562 0.001875
0.145200 -0.000513 0.000327 -0.001634 0.000982 0.001568 0.001888
0.147900 -0.000518 0.000330 -0.001657 0.000987 0.001573 0.001901
0.150700 -0.000523 0.000335 -0.001680 0.000993 0.001578 0.001915
0.153400 -0.000528 0.000338 -0.001701 0.000998 0.001583 0.001929
0.156200 -0.000533 0.000342 -0.001724 0.001004 0.001588 0.001943
0.158900 -0.000537 0.000346 -0.001745 0.001010 0.001592 0.001956
0.161600 -0.000542 0.000349 -0.001766 0.001015 0.001597 0.001970
0.164400 -0.000547 0.000353 -0.001788 0.001021 0.001601 0.001984
0.167100 -0.000551 0.000357 -0.001808 0.001027 0.001606 0.001997
0.169900 -0.000556 0.000360 -0.001830 0.001032 0.001610 0.002012
0.172600 -0.000560 0.000363 -0.001850 0.001038 0.001614 0.002025
0.175300 -0.000564 0.000367 -0.001870 0.001044 0.001618 0.002039
0.178100 -0.000568 0.000370 -0.001891 0.001050 0.001622 0.002054
0.180800 -0.000572 0.000373 -0.001911 0.001056 0.001626 0.002067
0.183600 -0.000576 0.000376 -0.001931 0.001062 0.001630 0.002082
0.186300 -0.000580 0.000379 -0.001950 0.001067 0.001633 0.002096
0.189000 -0.000584 0.000382 -0.001969 0.001073 0.001637 0.002110
0.191800 -0.000588 0.000385 -0.001989 0.001079 0.001640 0.002124
0.194500 -0.000592 0.000388 -0.002008 0.001085 0.001644 0.002138
0.197300 -0.000595 0.000391 -0.002027 0.001091 0.001647 0.002153
0.200000 -0.000599 0.000394 -0.002046 0.001097 0.001650 0.002167
0.202700 -0.000602 0.000397 -0.002064 0.001103 0.001653 0.002181
0.205500 -0.000606 0.000399 -0.002083 0.001110 0.001656 0.002195
0.208200 -0.000609 0.000402 -0.002101 0.001116 0.001659 0.002210
0.211000 -0.000613 0.000405 -0.002120 0.001122 0.001661 0.002224
0.213700 -0.000616 0.000407 -0.002138 0.001128 0.001664 0.002238
0.216400 -0.000619 0.000410 -0.002155 0.001134 0.001666 0.002252
0.219200 -0.000623 0.000412 -0.002173 0.001141 0.001669 0.002267
0.221900 -0.000626 0.000415 -0.002191 0.001147 0.001671 0.002281
0.224700 -0.000629 0.000417 -0.002208 0.001153 0.001674 0.002295
0.227400 -0.000632 0.000419 -0.002225 0.001159 0.001676 0.002309
0.230100 -0.000635 0.000421 -0.002242 0.001165 0.001678 0.002324
0.232900 -0.000638 0.000424 -0.002260 0.001172 0.001680 0.002338
0.235600 -0.000641 0.000426 -0.002276 0.001178 0.001682 0.002352
0.238400 -0.000644 0.000428 -0.002293 0.001185 0.001684 0.002367
0.241100 -0.000647 0.000430 -0.002310 0.001191 0.001685 0.002380
0.243800 -0.000650 0.000432 -0.002326 0.001197 0.001687 0.002394
0.246600 -0.000653 0.000434 -0.002343 0.001204 0.001689 0.002409
0.249300 -0.000656 0.000436 -0.002359 0.001210 0.001690 0.002423
0.252100 -0.000659 0.000438 -0.002375 0.001217 0.001692 0.002437
0.254800 -0.000662 0.000440 -0.002391 0.001223 0.001693 0.002451
0.257500 -0.000664 0.000442 -0.002407 0.001229 0.001695 0.002465
0.260300 -0.000667 0.000444 -0.002423 0.001236 0.001696 0.002479
0.263000 -0.000670 0.000446 -0.002438 0.001242 0.001697 0.002493
0.265800 -0.000673 0.000447 -0.002454 0.001249 0.001698 0.002507
0.268500 -0.000676 0.000449 -0.002469 0.001255 0.001699 0.002520
0.271200 -0.000678 0.000451 -0.002485 0.001261 0.001700 0.002534
0.274000 -0.000681 0.000452 -0.002500 0.001268 0.001701 0.002548
0.276700 -0.000684 0.000454 -0.002515 0.001274 0.001702 0.002562
0.279500 -0.000686 0.000456 -0.002530 0.001281 0.001703 0.002576
0.284900 -0.000692 0.000459 -0.002560 0.001293 0.001705 0.002602
0.287700 -0.000694 0.000460 -0.002575 0.001300 0.001705 0.002616
0.290400 -0.000697 0.000462 -0.002589 0.001306 0.001706 0.002630
0.293200 -0.000700 0.000463 -0.002604 0.001313 0.001707 0.002643
0.295900 -0.000702 0.000465 -0.002619 0.001319 0.001707 0.002656
0.298600 -0.000705 0.000466 -0.002633 0.001325 0.001708 0.002670
0.301400 -0.000708 0.000467 -0.002647 0.001332 0.001708 0.002683
0.304100 -0.000710 0.000469 -0.002661 0.001338 0.001708 0.002696
0.306900 -0.000713 0.000470 -0.002676 0.001345 0.001709 0.002710
0.309600 -0.000715 0.000471 -0.002690 0.001351 0.001709 0.002722
0.312300 -0.000718 0.000472 -0.002703 0.001357 0.001709 0.002735
0.315100 -0.000721 0.000474 -0.002718 0.001364 0.001710 0.002749
0.317800 -0.000723 0.000475 -0.002731 0.001370 0.001710 0.002761
0.320600 -0.000726 0.000476 -0.002745 0.001376 0.001710 0.002775
0.323300 -0.000729 0.000477 -0.002759 0.001382 0.001710 0.002787
0.326000 -0.000731 0.000478 -0.002772 0.001389 0.001710 0.002800
0.328800 -0.000734 0.000479 -0.002786 0.001395 0.001710 0.002813
0.331500 -0.000737 0.000480 -0.002799 0.001401 0.001710 0.002825
0.334300 -0.000739 0.000481 -0.002813 0.001407 0.001710 0.002838
0.337000 -0.000742 0.000482 -0.002826 0.001413 0.001710 0.002850
0.339700 -0.000745 0.000483 -0.002839 0.001419 0.001710 0.002863
0.342500 -0.000747 0.000484 -0.002852 0.001426 0.001710 0.002875
0.345200 -0.000750 0.000485 -0.002865 0.001432 0.001710 0.002887
0.347900 -0.000753 0.000486 -0.002878 0.001438 0.001710 0.002899
0.350700 -0.000755 0.000487 -0.002891 0.001444 0.001710 0.002912
0.353400 -0.000758 0.000488 -0.002904 0.001450 0.001710 0.002924
0.356200 -0.000761 0.000489 -0.002917 0.001456 0.001709 0.002936
0.358900 -0.000764 0.000490 -0.002929 0.001462 0.001709 0.002948
0.361600 -0.000766 0.000490 -0.002942 0.001468 0.001709 0.002960
0.364400 -0.000769 0.000491 -0.002955 0.001474 0.001709 0.002972
0.367100 -0.000772 0.000492 -0.002967 0.001480 0.001708 0.002983
0.375300 -0.000780 0.000494 -0.003004 0.001497 0.001707 0.003018
0.378100 -0.000783 0.000495 -0.003017 0.001503 0.001707 0.003030
0.380800 -0.000786 0.000495 -0.003029 0.001509 0.001706 0.003041
0.383600 -0.000789 0.000496 -0.003042 0.001515 0.001706 0.003053
0.386300 -0.000791 0.000497 -0.003054 0.001520 0.001706 0.003064
0.389000 -0.000794 0.000497 -0.003066 0.001526 0.001705 0.003075
0.391800 -0.000797 0.000498 -0.003078 0.001532 0.001705 0.003086
0.394500 -0.000800 0.000498 -0.003090 0.001537 0.001704 0.003097
0.397300 -0.000803 0.000499 -0.003102 0.001543 0.001704 0.003109
0.400000 -0.000806 0.000500 -0.003114 0.001548 0.001703 0.003119
0.402700 -0.000809 0.000500 -0.003125 0.001554 0.001703 0.003130
0.405500 -0.000812 0.000501 -0.003137 0.001559 0.001702 0.003141
0.408200 -0.000815 0.000501 -0.003149 0.001565 0.001702 0.003152
0.411000 -0.000818 0.000502 -0.003161 0.001570 0.001701 0.003163
0.413700 -0.000821 0.000502 -0.003172 0.001575 0.001701 0.003173
0.416400 -0.000824 0.000502 -0.003184 0.001581 0.001700 0.003184
0.419200 -0.000827 0.000503 -0.003196 0.001586 0.001699 0.003194
0.421900 -0.000830 0.000503 -0.003207 0.001591 0.001699 0.003205
0.424700 -0.000833 0.000504 -0.003219 0.001597 0.001698 0.003215
0.427400 -0.000836 0.000504 -0.003230 0.001602 0.001698 0.003225
0.430100 -0.000839 0.000504 -0.003241 0.001607 0.001697 0.003235
0.432900 -0.000842 0.000505 -0.003253 0.001612 0.001697 0.003246
0.435600 -0.000845 0.000505 -0.003264 0.001617 0.001696 0.003256
0.438400 -0.000849 0.000506 -0.003275 0.001623 0.001695 0.003266
0.441100 -0.000852 0.000506 -0.003286 0.001628 0.001695 0.003276
0.443800 -0.000855 0.000506 -0.003297 0.001633 0.001694 0.003285
0.446600 -0.000858 0.000506 -0.003309 0.001638 0.001693 0.003296
0.449300 -0.000861 0.000507 -0.003320 0.001643 0.001693 0.003305
0.452100 -0.000865 0.000507 -0.003331 0.001648 0.001692 0.003315
0.454800 -0.000868 0.000507 -0.003342 0.001652 0.001692 0.003324
0.457500 -0.000871 0.000507 -0.003353 0.001657 0.001691 0.003334
0.460300 -0.000874 0.000508 -0.003364 0.001662 0.001690 0.003344
0.463000 -0.000878 0.000508 -0.003375 0.001667 0.001690 0.003353
0.465800 -0.000881 0.000508 -0.003386 0.001672 0.001689 0.003362
0.468500 -0.000884 0.000508 -0.003396 0.001676 0.001688 0.003372
0.471200 -0.000888 0.000508 -0.003407 0.001681 0.001688 0.003381
0.474000 -0.000891 0.000509 -0.003418 0.001686 0.001687 0.003390
0.476700 -0.000894 0.000509 -0.003428 0.001690 0.001686 0.003399
0.479500 -0.000898 0.000509 -0.003439 0.001695 0.001686 0.003408
0.482200 -0.000901 0.000509 -0.003450 0.001699 0.001685 0.003417
0.484900 -0.000905 0.000509 -0.003460 0.001704 0.001685 0.003426
0.487700 -0.000908 0.000509 -0.003471 0.001708 0.001684 0.003435
0.490400 -0.000912 0.000509 -0.003481 0.001713 0.001683 0.003444
0.493200 -0.000915 0.000509 -0.003492 0.001717 0.001683 0.003453
0.495900 -0.000919 0.000509 -0.003503 0.001722 0.001682 0.003461
0.498600 -0.000922 0.000509 -0.003513 0.001726 0.001681 0.003470
0.501400 -0.000926 0.000509 -0.003523 0.001730 0.001681 0.003478
0.504100 -0.000929 0.000510 -0.003534 0.001735 0.001680 0.003487
0.506900 -0.000933 0.000510 -0.003544 0.001739 0.001679 0.003495
0.509600 -0.000937 0.000510 -0.003554 0.001743 0.001679 0.003503
0.512300 -0.000940 0.000510 -0.003565 0.001747 0.001678 0.003512
0.515100 -0.000944 0.000510 -0.003575 0.001751 0.001678 0.003520
0.517800 -0.000947 0.000510 -0.003585 0.001756 0.001677 0.003528
0.520600 -0.000951 0.000510 -0.003596 0.001760 0.001676 0.003536
0.523300 -0.000955 0.000510 -0.003606 0.001764 0.001676 0.003544
0.526000 -0.000959 0.000509 -0.003616 0.001768 0.001675 0.003552
0.528800 -0.000962 0.000509 -0.003626 0.001772 0.001675 0.003560
0.531500 -0.000966 0.000509 -0.003636 0.001776 0.001674 0.003568
0.534300 -0.000970 0.000509 -0.003646 0.001780 0.001673 0.003576
0.537000 -0.000974 0.000509 -0.003656 0.001783 0.001673 0.003584
0.539700 -0.000977 0.000509 -0.003666 0.001787 0.001672 0.003591
0.542500 -0.000981 0.000509 -0.003676 0.001791 0.001672 0.003599
0.545200 -0.000985 0.000509 -0.003686 0.001795 0.001671 0.003607
0.547900 -0.000989 0.000509 -0.003695 0.001799 0.001670 0.003614
0.550700 -0.000993 0.000509 -0.003706 0.001802 0.001670 0.003622
0.553400 -0.000997 0.000509 -0.003715 0.001806 0.001669 0.003629
0.556200 -0.001001 0.000508 -0.003725 0.001810 0.001669 0.003637
0.558900 -0.001005 0.000508 -0.003735 0.001813 0.001668 0.003644
0.561600 -0.001009 0.000508 -0.003745 0.001817 0.001668 0.003651
0.564400 -0.001013 0.000508 -0.003755 0.001821 0.001667 0.003658
0.567100 -0.001017 0.000508 -0.003764 0.001824 0.001666 0.003665
0.569900 -0.001021 0.000508 -0.003774 0.001828 0.001666 0.003673
0.572600 -0.001025 0.000507 -0.003784 0.001831 0.001665 0.003680
0.575300 -0.001029 0.000507 -0.003793 0.001835 0.001665 0.003687
0.578100 -0.001033 0.000507 -0.003803 0.001838 0.001664 0.003694
0.580800 -0.001037 0.000507 -0.003812 0.001841 0.001664 0.003700
0.583600 -0.001041 0.000507 -0.003822 0.001845 0.001663 0.003707
0.586300 -0.001045 0.000506 -0.003832 0.001848 0.001663 0.003714
0.589000 -0.001049 0.000506 -0.003841 0.001851 0.001662 0.003721
0.591800 -0.001053 0.000506 -0.003851 0.001855 0.001662 0.003728
0.594500 -0.001057 0.000506 -0.003860 0.001858 0.001661 0.003734
0.597300 -0.001062 0.000506 -0.003870 0.001861 0.001661 0.003741
0.600000 -0.001066 0.000505 -0.003879 0.001864 0.001660 0.003747
0.602700 -0.001070 0.000505 -0.003888 0.001868 0.001660 0.003754
0.605500 -0.001074 0.000505 -0.003898 0.001871 0.001659 0.003760
0.608200 -0.001078 0.000505 -0.003907 0.001874 0.001659 0.003767
0.611000 -0.001083 0.000504 -0.003917 0.001877 0.001658 0.003773
0.613700 -0.001087 0.000504 -0.003926 0.001880 0.001658 0.003779
0.616400 -0.001091 0.000504 -0.003935 0.001883 0.001657 0.003786
0.619200 -0.001095 0.000503 -0.003945 0.001886 0.001657 0.003792
0.621900 -0.001100 0.000503 -0.003954 0.001889 0.001657 0.003798
0.624700 -0.001104 0.000503 -0.003963 0.001892 0.001656 0.003804
0.627400 -0.001108 0.000502 -0.003972 0.001895 0.001656 0.003810
0.630100 -0.001113 0.000502 -0.003981 0.001898 0.001655 0.003816
0.632900 -0.001117 0.000502 -0.003991 0.001900 0.001655 0.003822
0.635600 -0.001122 0.000501 -0.004000 0.001903 0.001654 0.003828
0.638400 -0.001126 0.000501 -0.004009 0.001906 0.001654 0.003834
0.641100 -0.001130 0.000501 -0.004018 0.001909 0.001654 0.003840
0.643800 -0.001135 0.000500 -0.004027 0.001912 0.001653 0.003846
0.646600 -0.001139 0.000500 -0.004036 0.001914 0.001653 0.003851
0.649300 -0.001144 0.000500 -0.004045 0.001917 0.001652 0.003857
0.652100 -0.001148 0.000499 -0.004055 0.001920 0.001652 0.003863
0.654800 -0.001153 0.000499 -0.004064 0.001922 0.001652 0.003868
0.657500 -0.001157 0.000499 -0.004072 0.001925 0.001651 0.003874
0.660300 -0.001162 0.000498 -0.004082 0.001928 0.001651 0.003880
0.663000 -0.001166 0.000498 -0.004090 0.001930 0.001651 0.003885
0.665800 -0.001171 0.000498 -0.004100 0.001933 0.001650 0.003891
0.668500 -0.001175 0.000497 -0.004108 0.001935 0.001650 0.003896
0.671200 -0.001180 0.000497 -0.004117 0.001938 0.001649 0.003901
0.674000 -0.001185 0.000496 -0.004126 0.001940 0.001649 0.003907
0.676700 -0.001189 0.000496 -0.004135 0.001942 0.001649 0.003912
0.679500 -0.001194 0.000496 -0.004144 0.001945 0.001648 0.003917
0.682200 -0.001199 0.000495 -0.004153 0.001947 0.001648 0.003922
0.684900 -0.001203 0.000495 -0.004162 0.001950 0.001648 0.003928
0.687700 -0.001208 0.000494 -0.004171 0.001952 0.001647 0.003933
0.690400 -0.001212 0.000494 -0.004179 0.001954 0.001647 0.003938
0.693200 -0.001217 0.000493 -0.004188 0.001957 0.001647 0.003943
0.695900 -0.001222 0.000493 -0.004197 0.001959 0.001647 0.003948
0.698600 -0.001227 0.000493 -0.004205 0.001961 0.001646 0.003953
0.701400 -0.001231 0.000492 -0.004214 0.001963 0.001646 0.003958
0.704100 -0.001236 0.000492 -0.004223 0.001966 0.001646 0.003963
0.706900 -0.001241 0.000491 -0.004232 0.001968 0.001645 0.003968
0.709600 -0.001246 0.000491 -0.004240 0.001970 0.001645 0.003973
0.712300 -0.001250 0.000490 -0.004249 0.001972 0.001645 0.003977
0.715100 -0.001255 0.000490 -0.004258 0.001974 0.001645 0.003982
0.717800 -0.001260 0.000489 -0.004266 0.001976 0.001644 0.003987
0.720600 -0.001265 0.000489 -0.004275 0.001978 0.001644 0.003992
0.723300 -0.001270 0.000488 -0.004283 0.001980 0.001644 0.003996
0.726000 -0.001274 0.000488 -0.004292 0.001982 0.001643 0.004001
0.728800 -0.001279 0.000487 -0.004301 0.001984 0.001643 0.004005
0.731500 -0.001284 0.000487 -0.004309 0.001986 0.001643 0.004010
0.734300 -0.001289 0.000487 -0.004318 0.001988 0.001643 0.004015
0.737000 -0.001294 0.000486 -0.004326 0.001990 0.001642 0.004019
0.739700 -0.001299 0.000486 -0.004335 0.001992 0.001642 0.004023
0.742500 -0.001304 0.000485 -0.004343 0.001994 0.001642 0.004028
0.745200 -0.001309 0.000485 -0.004352 0.001996 0.001642 0.004032
0.747900 -0.001314 0.000484 -0.004360 0.001998 0.001642 0.004036
0.750700 -0.001319 0.000484 -0.004368 0.002000 0.001641 0.004041
0.753400 -0.001324 0.000483 -0.004377 0.002001 0.001641 0.004045
0.756200 -0.001329 0.000483 -0.004385 0.002003 0.001641 0.004049
0.758900 -0.001334 0.000482 -0.004394 0.002005 0.001641 0.004054
0.761600 -0.001338 0.000481 -0.004402 0.002007 0.001641 0.004058
0.764400 -0.001344 0.000481 -0.004410 0.002008 0.001640 0.004062
0.767100 -0.001349 0.000480 -0.004419 0.002010 0.001640 0.004066
0.769900 -0.001354 0.000480 -0.004427 0.002012 0.001640 0.004070
0.772600 -0.001359 0.000479 -0.004435 0.002014 0.001640 0.004074
0.775300 -0.001364 0.000479 -0.004444 0.002015 0.001640 0.004078
0.778100 -0.001369 0.000478 -0.004452 0.002017 0.001639 0.004082
0.780800 -0.001374 0.000478 -0.004460 0.002018 0.001639 0.004086
0.783600 -0.001379 0.000477 -0.004469 0.002020 0.001639 0.004090
0.786300 -0.001384 0.000477 -0.004477 0.002022 0.001639 0.004094
0.789000 -0.001389 0.000476 -0.004485 0.002023 0.001639 0.004098
0.791800 -0.001394 0.000476 -0.004493 0.002025 0.001639 0.004102
0.794500 -0.001399 0.000475 -0.004501 0.002026 0.001638 0.004106
0.797300 -0.001405 0.000474 -0.004510 0.002028 0.001638 0.004110
0.800000 -0.001410 0.000474 -0.004518 0.002029 0.001638 0.004113
0.802700 -0.001415 0.000473 -0.004526 0.002031 0.001638 0.004117
0.805500 -0.001420 0.000473 -0.004534 0.002032 0.001638 0.004121
0.808200 -0.001425 0.000472 -0.004542 0.002034 0.001638 0.004124
0.811000 -0.001430 0.000472 -0.004550 0.002035 0.001637 0.004128
0.813700 -0.001436 0.000471 -0.004558 0.002036 0.001637 0.004132
0.816400 -0.001441 0.000470 -0.004566 0.002038 0.001637 0.004135
0.819200 -0.001446 0.000470 -0.004575 0.002039 0.001637 0.004139
0.821900 -0.001451 0.000469 -0.004583 0.002041 0.001637 0.004143
0.824700 -0.001456 0.000469 -0.004591 0.002042 0.001637 0.004146
0.827400 -0.001462 0.000468 -0.004599 0.002043 0.001637 0.004150
0.830100 -0.001467 0.000468 -0.004607 0.002044 0.001637 0.004153
0.832900 -0.001472 0.000467 -0.004615 0.002046 0.001636 0.004157
0.835600 -0.001477 0.000466 -0.004623 0.002047 0.001636 0.004160
0.838400 -0.001483 0.000466 -0.004631 0.002048 0.001636 0.004163
0.841100 -0.001488 0.000465 -0.004639 0.002050 0.001636 0.004167
0.843800 -0.001493 0.000465 -0.004647 0.002051 0.001636 0.004170
