# time (yr) north(m) east(m) up(m) northsigma(m) eastsigma(m) upsigma(m)
0.000000 0.000000 0.000000 0.000000 0.000950 0.000724 0.001417
0.002700 -0.000052 -0.000000 0.000028 0.000953 0.000725 0.001418
0.005500 -0.000104 -0.000001 0.000056 0.000959 0.000725 0.001418
0.008200 -0.000153 -0.000002 0.000084 0.000967 0.000727 0.001419
0.011000 -0.000202 -0.000002 0.000112 0.000979 0.000729 0.001420
0.013700 -0.000249 -0.000003 0.000140 0.000991 0.000731 0.001422
0.016400 -0.000294 -0.000004 0.000167 0.001005 0.000734 0.001423
0.019200 -0.000340 -0.000006 0.000196 0.001021 0.000737 0.001425
0.021900 -0.000383 -0.000007 0.000223 0.001036 0.000740 0.001428
0.024700 -0.000426 -0.000008 0.000252 0.001053 0.000744 0.001430
0.027400 -0.000467 -0.000010 0.000279 0.001069 0.000748 0.001433
0.030100 -0.000507 -0.000011 0.000307 0.001085 0.000752 0.001435
0.032900 -0.000548 -0.000013 0.000335 0.001101 0.000757 0.001439
0.035600 -0.000586 -0.000015 0.000362 0.001117 0.000762 0.001442
0.038400 -0.000625 -0.000017 0.000391 0.001133 0.000767 0.001445
0.041100 -0.000661 -0.000019 0.000418 0.001149 0.000772 0.001449
0.043800 -0.000697 -0.000021 0.000445 0.001164 0.000778 0.001452
0.046600 -0.000734 -0.000023 0.000473 0.001179 0.000784 0.001456
0.049300 -0.000768 -0.000025 0.000500 0.001194 0.000790 0.001460
0.052100 -0.000804 -0.000027 0.000528 0.001209 0.000796 0.001464
0.054800 -0.000837 -0.000029 0.000555 0.001223 0.000802 0.001468
0.057500 -0.000869 -0.000032 0.000581 0.001237 0.000808 0.001472
0.060300 -0.000902 -0.000034 0.000609 0.001251 0.000815 0.001476
0.063000 -0.000934 -0.000036 0.000636 0.001264 0.000821 0.001480
0.065800 -0.000966 -0.000039 0.000663 0.001277 0.000828 0.001485
0.068500 -0.000996 -0.000041 0.000689 0.001290 0.000835 0.001489
0.071200 -0.001026 -0.000044 0.000716 0.001303 0.000842 0.001494
0.074000 -0.001056 -0.000046 0.000743 0.001316 0.000849 0.001498
0.076700 -0.001084 -0.000049 0.000769 0.001328 0.000856 0.001503
0.079500 -0.001114 -0.000051 0.000796 0.001340 0.000863 0.001507
0.082200 -0.001141 -0.000054 0.000822 0.001352 0.000870 0.001512
0.084900 -0.001169 -0.000057 0.000847 0.001364 0.000877 0.001517
0.087700 -0.001196 -0.000059 0.000874 0.001375 0.000884 0.001521
0.090400 -0.001223 -0.000062 0.000899 0.001387 0.000891 0.001526
0.093200 -0.001250 -0.000065 0.000926 0.001398 0.000898 0.001531
0.095900 -0.001275 -0.000068 0.000951 0.001409 0.000905 0.001536
0.098600 -0.001300 -0.000070 0.000976 0.001420 0.000912 0.001540
0.101400 -0.001326 -0.000073 0.001002 0.001431 0.000920 0.001545
0.104100 -0.001350 -0.000076 0.001027 0.001442 0.000927 0.001550
0.106900 -0.001375 -0.000079 0.001052 0.001452 0.000934 0.001555
0.109600 -0.001399 -0.000082 0.001077 0.001463 0.000941 0.001560
0.112300 -0.001422 -0.000085 0.001101 0.001473 0.000948 0.001564
0.115100 -0.001446 -0.000088 0.001126 0.001483 0.000955 0.001569
0.117800 -0.001468 -0.000091 0.001150 0.001493 0.000962 0.001574
0.120600 -0.001492 -0.000094 0.001175 0.001504 0.000969 0.001579
0.123300 -0.001513 -0.000097 0.001199 0.001513 0.000976 0.001584
0.126000 -0.001535 -0.000100 0.001223 0.001523 0.000982 0.001588
0.128800 -0.001557 -0.000103 0.001247 0.001533 0.000989 0.001593
0.131500 -0.001578 -0.000106 0.001271 0.001543 0.000996 0.001598
0.134300 -0.001600 -0.000109 0.001295 0.001552 0.001003 0.001603
0.137000 -0.001620 -0.000112 0.001318 0.001562 0.001009 0.001607
0.139700 -0.001641 -0.000115 0.001341 0.001571 0.001016 0.001612
0.142500 -0.001661 -0.000118 0.001364 0.001580 0.001022 0.001617
0.145200 -0.001681 -0.000121 0.001387 0.001589 0.001029 0.001621
0.147900 -0.001701 -0.000124 0.001410 0.001598 0.001035 0.001626
0.150700 -0.001721 -0.000127 0.001433 0.001608 0.001041 0.001631
0.153400 -0.001740 -0.000130 0.001455 0.001616 0.001047 0.001635
0.156200 -0.001759 -0.000133 0.001478 0.001625 0.001054 0.001640
0.158900 -0.001777 -0.000136 0.001500 0.001634 0.001060 0.001644
0.161600 -0.001796 -0.000139 0.001521 0.001643 0.001066 0.001649
0.164400 -0.001815 -0.000142 0.001544 0.001652 0.001072 0.001653
0.167100 -0.001832 -0.000145 0.001565 0.001660 0.001078 0.001658
0.169900 -0.001851 -0.000149 0.001587 0.001669 0.001083 0.001662
0.172600 -0.001868 -0.000152 0.001608 0.001677 0.001089 0.001667
0.175300 -0.001885 -0.000155 0.001629 0.001685 0.001095 0.001671
0.178100 -0.001903 -0.000158 0.001651 0.001694 0.001100 0.001676
0.180800 -0.001920 -0.000161 0.001672 0.001702 0.001106 0.001680
0.183600 -0.001937 -0.000164 0.001693 0.001710 0.001111 0.001684
0.186300 -0.001954 -0.000167 0.001713 0.001718 0.001117 0.001689
0.189000 -0.001970 -0.000170 0.001733 0.001726 0.001122 0.001693
0.191800 -0.001987 -0.000173 0.001754 0.001734 0.001127 0.001697
0.194500 -0.002003 -0.000176 0.001774 0.001742 0.001132 0.001701
0.197300 -0.002019 -0.000179 0.001794 0.001749 0.001137 0.001705
0.200000 -0.002035 -0.000182 0.001814 0.001757 0.001142 0.001709
0.202700 -0.002051 -0.000185 0.001833 0.001765 0.001147 0.001713
0.205500 -0.002067 -0.000189 0.001853 0.001772 0.001152 0.001718
0.208200 -0.002082 -0.000192 0.001872 0.001780 0.001157 0.001722
0.211000 -0.002097 -0.000195 0.001892 0.001787 0.001161 0.001726
0.213700 -0.002112 -0.000198 0.001911 0.001794 0.001166 0.001730
0.216400 -0.002127 -0.000201 0.001929 0.001802 0.001170 0.001733
0.219200 -0.002142 -0.000204 0.001948 0.001809 0.001175 0.001737
0.221900 -0.002157 -0.000207 0.001967 0.001816 0.001179 0.001741
0.224700 -0.002172 -0.000210 0.001986 0.001823 0.001184 0.001745
0.227400 -0.002186 -0.000213 0.002004 0.001830 0.001188 0.001749
0.230100 -0.002200 -0.000216 0.002021 0.001837 0.001192 0.001753
0.232900 -0.002214 -0.000219 0.002040 0.001844 0.001196 0.001756
0.235600 -0.002228 -0.000222 0.002057 0.001851 0.001200 0.001760
0.238400 -0.002243 -0.000225 0.002075 0.001858 0.001204 0.001764
0.241100 -0.002256 -0.000228 0.002093 0.001864 0.001208 0.001767
0.243800 -0.002270 -0.000231 0.002110 0.001871 0.001212 0.001771
0.246600 -0.002284 -0.000234 0.002127 0.001877 0.001216 0.001775
0.249300 -0.002297 -0.000237 0.002144 0.001884 0.001219 0.001778
0.252100 -0.002311 -0.000240 0.002161 0.001890 0.001223 0.001782
0.254800 -0.002324 -0.000243 0.002178 0.001897 0.001227 0.001785
0.257500 -0.002337 -0.000245 0.002194 0.001903 0.001230 0.001788
0.260300 -0.002350 -0.000248 0.002211 0.001909 0.001234 0.001792
0.263000 -0.002363 -0.000251 0.002227 0.001915 0.001237 0.001795
0.265800 -0.002376 -0.000254 0.002243 0.001922 0.001240 0.001799
0.268500 -0.002388 -0.000257 0.002259 0.001928 0.001243 0.001802
0.271200 -0.002401 -0.000260 0.002275 0.001934 0.001247 0.001805
0.274000 -0.002414 -0.000263 0.002291 0.001940 0.001250 0.001808
0.276700 -0.002426 -0.000266 0.002306 0.001946 0.001253 0.001812
0.279500 -0.002439 -0.000269 0.002322 0.001951 0.001256 0.001815
0.282200 -0.002451 -0.000271 0.002337 0.001957 0.001259 0.001818
0.284900 -0.002463 -0.000274 0.002352 0.001963 0.001262 0.001821
0.287700 -0.002475 -0.000277 0.002367 0.001969 0.001264 0.001824
0.290400 -0.002487 -0.000280 0.002381 0.001974 0.001267 0.001827
0.293200 -0.002499 -0.000283 0.002396 0.001980 0.001270 0.001830
0.295900 -0.002511 -0.000285 0.002411 0.001985 0.001273 0.001833
0.298600 -0.002523 -0.000288 0.002425 0.001991 0.001275 0.001836
0.301400 -0.002535 -0.000291 0.002439 0.001996 0.001278 0.001839
0.304100 -0.002546 -0.000294 0.002453 0.002001 0.001280 0.001842
0.306900 -0.002558 -0.000296 0.002468 0.002007 0.001283 0.001845
0.309600 -0.002569 -0.000299 0.002481 0.002012 0.001285 0.001847
0.312300 -0.002580 -0.000302 0.002495 0.002017 0.001287 0.001850
0.315100 -0.002592 -0.000304 0.002508 0.002022 0.001290 0.001853
0.317800 -0.002603 -0.000307 0.002522 0.002027 0.001292 0.001856
0.320600 -0.002615 -0.000310 0.002535 0.002032 0.001294 0.001858
0.323300 -0.002626 -0.000312 0.002548 0.002037 0.001296 0.001861
0.326000 -0.002637 -0.000315 0.002561 0.002042 0.001298 0.001864
0.328800 -0.002648 -0.000318 0.002574 0.002047 0.001300 0.001866
0.331500 -0.002659 -0.000320 0.002587 0.002052 0.001302 0.001869
0.334300 -0.002670 -0.000323 0.002600 0.002057 0.001304 0.001871
0.337000 -0.002680 -0.000326 0.002612 0.002062 0.001306 0.001874
0.339700 -0.002691 -0.000328 0.002624 0.002066 0.001308 0.001876
0.342500 -0.002702 -0.000331 0.002636 0.002071 0.001310 0.001879
0.345200 -0.002713 -0.000333 0.002648 0.002075 0.001312 0.001881
0.347900 -0.002723 -0.000336 0.002660 0.002080 0.001313 0.001883
0.350700 -0.002734 -0.000338 0.002672 0.002085 0.001315 0.001886
0.353400 -0.002744 -0.000341 0.002684 0.002089 0.001317 0.001888
0.356200 -0.002755 -0.000343 0.002696 0.002094 0.001318 0.001890
0.358900 -0.002765 -0.000346 0.002707 0.002098 0.001320 0.001893
0.361600 -0.002775 -0.000348 0.002718 0.002102 0.001321 0.001895
0.364400 -0.002786 -0.000351 0.002729 0.002106 0.001323 0.001897
0.367100 -0.002796 -0.000353 0.002740 0.002111 0.001324 0.001899
0.369900 -0.002806 -0.000356 0.002751 0.002115 0.001326 0.001901
0.372600 -0.002816 -0.000358 0.002762 0.002119 0.001327 0.001903
0.375300 -0.002826 -0.000361 0.002773 0.002123 0.001329 0.001905
0.378100 -0.002836 -0.000363 0.002784 0.002127 0.001330 0.001908
0.380800 -0.002846 -0.000365 0.002794 0.002131 0.001331 0.001910
0.383600 -0.002857 -0.000368 0.002804 0.002135 0.001332 0.001912
0.386300 -0.002866 -0.000370 0.002814 0.002139 0.001334 0.001913
0.389000 -0.002876 -0.000372 0.002824 0.002143 0.001335 0.001915
0.391800 -0.002886 -0.000375 0.002835 0.002147 0.001336 0.001917
0.394500 -0.002896 -0.000377 0.002844 0.002151 0.001337 0.001919
0.397300 -0.002906 -0.000380 0.002854 0.002155 0.001338 0.001921
0.400000 -0.002915 -0.000382 0.002864 0.002159 0.001339 0.001923
0.402700 -0.002925 -0.000384 0.002873 0.002162 0.001340 0.001925
0.405500 -0.002935 -0.000386 0.002883 0.002166 0.001341 0.001927
0.408200 -0.002944 -0.000389 0.002892 0.002170 0.001342 0.001928
0.411000 -0.002954 -0.000391 0.002901 0.002173 0.001343 0.001930
0.413700 -0.002963 -0.000393 0.002910 0.002177 0.001344 0.001932
0.416400 -0.002972 -0.000395 0.002919 0.002180 0.001345 0.001933
0.419200 -0.002982 -0.000398 0.002928 0.002184 0.001345 0.001935
0.421900 -0.002991 -0.000400 0.002937 0.002188 0.001346 0.001937
0.424700 -0.003001 -0.000402 0.002946 0.002191 0.001347 0.001938
0.427400 -0.003010 -0.000404 0.002954 0.002194 0.001348 0.001940
0.430100 -0.003019 -0.000406 0.002962 0.002198 0.001348 0.001941
0.432900 -0.003029 -0.000408 0.002971 0.002201 0.001349 0.001943
0.435600 -0.003038 -0.000411 0.002979 0.002205 0.001350 0.001944
0.438400 -0.003047 -0.000413 0.002987 0.002208 0.001350 0.001946
0.441100 -0.003056 -0.000415 0.002995 0.002211 0.001351 0.001947
0.443800 -0.003065 -0.000417 0.003003 0.002214 0.001352 0.001949
0.446600 -0.003075 -0.000419 0.003011 0.002218 0.001352 0.001950
0.449300 -0.003084 -0.000421 0.003019 0.002221 0.001353 0.001952
0.452100 -0.003093 -0.000423 0.003026 0.002224 0.001353 0.001953
0.454800 -0.003102 -0.000425 0.003034 0.002227 0.001354 0.001954
0.457500 -0.003110 -0.000427 0.003041 0.002230 0.001354 0.001956
0.460300 -0.003120 -0.000429 0.003049 0.002233 0.001355 0.001957
0.463000 -0.003128 -0.000431 0.003056 0.002236 0.001355 0.001958
0.465800 -0.003138 -0.000433 0.003063 0.002239 0.001356 0.001959
0.468500 -0.003146 -0.000435 0.003070 0.002242 0.001356 0.001961
0.471200 -0.003155 -0.000437 0.003077 0.002245 0.001356 0.001962
0.474000 -0.003164 -0.000439 0.003084 0.002248 0.001357 0.001963
0.476700 -0.003173 -0.000441 0.003090 0.002251 0.001357 0.001964
0.479500 -0.003182 -0.000443 0.003097 0.002254 0.001357 0.001965
0.482200 -0.003190 -0.000445 0.003104 0.002257 0.001358 0.001966
0.484900 -0.003199 -0.000447 0.003110 0.002260 0.001358 0.001967
0.487700 -0.003208 -0.000449 0.003117 0.002263 0.001358 0.001969
0.490400 -0.003216 -0.000451 0.003123 0.002265 0.001358 0.001970
0.493200 -0.003225 -0.000453 0.003129 0.002268 0.001359 0.001971
0.495900 -0.003234 -0.000454 0.003135 0.002271 0.001359 0.001972
0.498600 -0.003242 -0.000456 0.003141 0.002274 0.001359 0.001973
0.501400 -0.003251 -0.000458 0.003147 0.002276 0.001359 0.001974
0.504100 -0.003259 -0.000460 0.003153 0.002279 0.001359 0.001975
0.506900 -0.003268 -0.000462 0.003159 0.002282 0.001359 0.001976
0.509600 -0.003276 -0.000464 0.003164 0.002284 0.001360 0.001976
0.512300 -0.003285 -0.000465 0.003170 0.002287 0.001360 0.001977
0.517800 -0.003302 -0.000469 0.003181 0.002292 0.001360 0.001979
0.520600 -0.003310 -0.000471 0.003186 0.002295 0.001360 0.001980
0.523300 -0.003318 -0.000472 0.003192 0.002297 0.001360 0.001981
0.526000 -0.003327 -0.000474 0.003197 0.002299 0.001360 0.001982
0.528800 -0.003335 -0.000476 0.003202 0.002302 0.001360 0.001982
0.531500 -0.003343 -0.000478 0.003207 0.002304 0.001360 0.001983
0.534300 -0.003352 -0.000479 0.003212 0.002307 0.001360 0.001984
0.537000 -0.003360 -0.000481 0.003217 0.002309 0.001360 0.001985
0.539700 -0.003368 -0.000483 0.003221 0.002312 0.001360 0.001985
0.558900 -0.003426 -0.000494 0.003253 0.002328 0.001359 0.001990
0.561600 -0.003434 -0.000496 0.003257 0.002330 0.001359 0.001990
0.564400 -0.003442 -0.000497 0.003261 0.002332 0.001359 0.001991
0.567100 -0.003450 -0.000499 0.003265 0.002335 0.001359 0.001991
0.569900 -0.003458 -0.000500 0.003269 0.002337 0.001359 0.001992
0.572600 -0.003466 -0.000502 0.003273 0.002339 0.001359 0.001993
0.575300 -0.003474 -0.000503 0.003277 0.002341 0.001359 0.001993
0.578100 -0.003482 -0.000505 0.003280 0.002343 0.001358 0.001994
0.580800 -0.003490 -0.000506 0.003284 0.002345 0.001358 0.001994
0.583600 -0.003499 -0.000508 0.003288 0.002347 0.001358 0.001994
0.586300 -0.003506 -0.000509 0.003291 0.002350 0.001358 0.001995
0.589000 -0.003514 -0.000511 0.003295 0.002352 0.001358 0.001995
0.591800 -0.003522 -0.000512 0.003298 0.002354 0.001357 0.001996
0.594500 -0.003530 -0.000514 0.003302 0.002356 0.001357 0.001996
0.597300 -0.003538 -0.000515 0.003305 0.002358 0.001357 0.001997
0.600000 -0.003546 -0.000517 0.003308 0.002360 0.001357 0.001997
0.602700 -0.003554 -0.000518 0.003311 0.002362 0.001357 0.001997
0.605500 -0.003562 -0.000519 0.003314 0.002364 0.001356 0.001998
0.608200 -0.003570 -0.000521 0.003317 0.002366 0.001356 0.001998
0.611000 -0.003578 -0.000522 0.003320 0.002368 0.001356 0.001998
0.613700 -0.003586 -0.000524 0.003323 0.002370 0.001355 0.001999
0.616400 -0.003593 -0.000525 0.003326 0.002371 0.001355 0.001999
0.619200 -0.003601 -0.000526 0.003329 0.002373 0.001355 0.001999
0.621900 -0.003609 -0.000528 0.003331 0.002375 0.001355 0.001999
0.624700 -0.003617 -0.000529 0.003334 0.002377 0.001354 0.002000
0.627400 -0.003625 -0.000530 0.003337 0.002379 0.001354 0.002000
0.630100 -0.003632 -0.000532 0.003339 0.002381 0.001354 0.002000
0.632900 -0.003640 -0.000533 0.003342 0.002383 0.001353 0.002000
0.635600 -0.003648 -0.000534 0.003344 0.002385 0.001353 0.002001
0.638400 -0.003656 -0.000536 0.003347 0.002386 0.001353 0.002001
0.641100 -0.003663 -0.000537 0.003349 0.002388 0.001352 0.002001
0.643800 -0.003671 -0.000538 0.003351 0.002390 0.001352 0.002001
0.646600 -0.003679 -0.000539 0.003353 0.002392 0.001352 0.002001
0.649300 -0.003686 -0.000541 0.003355 0.002394 0.001351 0.002001
0.652100 -0.003694 -0.000542 0.003358 0.002395 0.001351 0.002002
0.654800 -0.003702 -0.000543 0.003360 0.002397 0.001351 0.002002
0.657500 -0.003709 -0.000544 0.003362 0.002399 0.001350 0.002002
0.660300 -0.003717 -0.000546 0.003363 0.002401 0.001350 0.002002
0.663000 -0.003725 -0.000547 0.003365 0.002402 0.001350 0.002002
0.665800 -0.003732 -0.000548 0.003367 0.002404 0.001349 0.002002
0.668500 -0.003740 -0.000549 0.003369 0.002406 0.001349 0.002002
0.671200 -0.003747 -0.000550 0.003371 0.002407 0.001348 0.002002
0.674000 -0.003755 -0.000552 0.003372 0.002409 0.001348 0.002002
0.676700 -0.003763 -0.000553 0.003374 0.002411 0.001348 0.002002
0.679500 -0.003770 -0.000554 0.003376 0.002412 0.001347 0.002002
0.682200 -0.003778 -0.000555 0.003377 0.002414 0.001347 0.002002
0.684900 -0.003785 -0.000556 0.003378 0.002415 0.001347 0.002002
0.687700 -0.003793 -0.000557 0.003380 0.002417 0.001346 0.002002
0.690400 -0.003800 -0.000558 0.003381 0.002419 0.001346 0.002002
0.693200 -0.003808 -0.000559 0.003383 0.002420 0.001345 0.002002
0.695900 -0.003815 -0.000561 0.003384 0.002422 0.001345 0.002002
0.698600 -0.003823 -0.000562 0.003385 0.002423 0.001345 0.002002
0.701400 -0.003830 -0.000563 0.003386 0.002425 0.001344 0.002002
0.704100 -0.003838 -0.000564 0.003387 0.002427 0.001344 0.002002
0.706900 -0.003845 -0.000565 0.003389 0.002428 0.001343 0.002002
0.709600 -0.003853 -0.000566 0.003390 0.002430 0.001343 0.002002
0.712300 -0.003860 -0.000567 0.003391 0.002431 0.001343 0.002002
0.715100 -0.003868 -0.000568 0.003392 0.002433 0.001342 0.002002
0.717800 -0.003875 -0.000569 0.003392 0.002434 0.001342 0.002002
0.720600 -0.003883 -0.000570 0.003393 0.002436 0.001341 0.002002
0.723300 -0.003890 -0.000571 0.003394 0.002437 0.001341 0.002002
0.726000 -0.003897 -0.000572 0.003395 0.002438 0.001340 0.002001
0.728800 -0.003905 -0.000573 0.003396 0.002440 0.001340 0.002001
0.731500 -0.003912 -0.000574 0.003396 0.002441 0.001340 0.002001
0.734300 -0.003920 -0.000575 0.003397 0.002443 0.001339 0.002001
0.737000 -0.003927 -0.000576 0.003398 0.002444 0.001339 0.002001
0.739700 -0.003934 -0.000577 0.003398 0.002446 0.001338 0.002001
0.742500 -0.003942 -0.000578 0.003399 0.002447 0.001338 0.002000
0.745200 -0.003949 -0.000579 0.003399 0.002448 0.001337 0.002000
0.747900 -0.003956 -0.000580 0.003400 0.002450 0.001337 0.002000
0.750700 -0.003963 -0.000581 0.003400 0.002451 0.001337 0.002000
0.753400 -0.003971 -0.000582 0.003401 0.002453 0.001336 0.002000
0.756200 -0.003978 -0.000583 0.003401 0.002454 0.001336 0.001999
0.758900 -0.003985 -0.000584 0.003401 0.002455 0.001335 0.001999
0.761600 -0.003993 -0.000584 0.003401 0.002457 0.001335 0.001999
0.764400 -0.004000 -0.000585 0.003402 0.002458 0.001334 0.001999
0.767100 -0.004007 -0.000586 0.003402 0.002459 0.001334 0.001999
0.769900 -0.004015 -0.000587 0.003402 0.002461 0.001333 0.001998
0.772600 -0.004022 -0.000588 0.003402 0.002462 0.001333 0.001998
0.775300 -0.004029 -0.000589 0.003402 0.002463 0.001333 0.001998
0.778100 -0.004036 -0.000590 0.003402 0.002465 0.001332 0.001998
0.780800 -0.004043 -0.000591 0.003402 0.002466 0.001332 0.001997
0.783600 -0.004051 -0.000591 0.003402 0.002467 0.001331 0.001997
0.786300 -0.004058 -0.000592 0.003402 0.002468 0.001331 0.001997
0.789000 -0.004065 -0.000593 0.003402 0.002470 0.001330 0.001996
0.791800 -0.004072 -0.000594 0.003402 0.002471 0.001330 0.001996
0.794500 -0.004079 -0.000595 0.003402 0.002472 0.001330 0.001996
0.797300 -0.004087 -0.000595 0.003402 0.002473 0.001329 0.001996
0.800000 -0.004094 -0.000596 0.003402 0.002475 0.001329 0.001995
0.802700 -0.004101 -0.000597 0.003401 0.002476 0.001328 0.001995
0.805500 -0.004108 -0.000598 0.003401 0.002477 0.001328 0.001995
0.808200 -0.004115 -0.000599 0.003401 0.002478 0.001327 0.001994
0.811000 -0.004123 -0.000599 0.003400 0.002480 0.001327 0.001994
0.813700 -0.004130 -0.000600 0.003400 0.002481 0.001327 0.001994
0.816400 -0.004137 -0.000601 0.003400 0.002482 0.001326 0.001993
0.819200 -0.004144 -0.000602 0.003399 0.002483 0.001326 0.001993
0.821900 -0.004151 -0.000602 0.003399 0.002484 0.001325 0.001993
0.824700 -0.004158 -0.000603 0.003398 0.002485 0.001325 0.001992
0.827400 -0.004165 -0.000604 0.003398 0.002487 0.001324 0.001992
0.830100 -0.004172 -0.000605 0.003397 0.002488 0.001324 0.001991
0.832900 -0.004180 -0.000605 0.003397 0.002489 0.001323 0.001991
0.835600 -0.004187 -0.000606 0.003396 0.002490 0.001323 0.001991
0.838400 -0.004194 -0.000607 0.003395 0.002491 0.001323 0.001990
0.841100 -0.004201 -0.000608 0.003395 0.002492 0.001322 0.001990
0.843800 -0.004208 -0.000608 0.003394 0.002493 0.001322 0.001990
0.846600 -0.004215 -0.000609 0.003393 0.002494 0.001321 0.001989
0.849300 -0.004222 -0.000610 0.003393 0.002496 0.001321 0.001989
0.852100 -0.004229 -0.000610 0.003392 0.002497 0.001320 0.001988
0.854800 -0.004236 -0.000611 0.003391 0.002498 0.001320 0.001988
