# time (yr) north(m) east(m) up(m) northsigma(m) eastsigma(m) upsigma(m)
0.000000 0.000000 0.000000 0.000000 0.002324 0.000485 0.001448
0.002700 -0.000022 -0.000000 0.000067 0.002324 0.000485 0.001453
0.005500 -0.000044 -0.000000 0.000133 0.002326 0.000485 0.001466
0.008200 -0.000065 -0.000001 0.000192 0.002328 0.000485 0.001483
0.011000 -0.000087 -0.000001 0.000252 0.002332 0.000485 0.001504
0.013700 -0.000108 -0.000001 0.000307 0.002335 0.000485 0.001524
0.016400 -0.000128 -0.000001 0.000360 0.002340 0.000485 0.001545
0.019200 -0.000149 -0.000001 0.000413 0.002344 0.000485 0.001566
0.021900 -0.000168 -0.000002 0.000463 0.002350 0.000485 0.001585
0.024700 -0.000189 -0.000002 0.000514 0.002356 0.000485 0.001604
0.027400 -0.000208 -0.000002 0.000562 0.002362 0.000485 0.001621
0.030100 -0.000227 -0.000002 0.000609 0.002369 0.000485 0.001637
0.032900 -0.000246 -0.000003 0.000657 0.002377 0.000485 0.001653
0.035600 -0.000265 -0.000003 0.000702 0.002386 0.000485 0.001667
0.038400 -0.000284 -0.000003 0.000748 0.002395 0.000485 0.001680
0.041100 -0.000302 -0.000003 0.000792 0.002405 0.000486 0.001691
0.043800 -0.000320 -0.000003 0.000835 0.002415 0.000486 0.001702
0.046600 -0.000339 -0.000004 0.000879 0.002426 0.000486 0.001713
0.049300 -0.000356 -0.000004 0.000921 0.002438 0.000486 0.001722
0.052100 -0.000374 -0.000004 0.000964 0.002451 0.000486 0.001731
0.054800 -0.000391 -0.000004 0.001006 0.002464 0.000486 0.001739
0.057500 -0.000408 -0.000005 0.001046 0.002477 0.000486 0.001747
0.060300 -0.000426 -0.000005 0.001088 0.002492 0.000486 0.001754
0.063000 -0.000443 -0.000005 0.001128 0.002506 0.000486 0.001761
0.065800 -0.000460 -0.000005 0.001169 0.002522 0.000486 0.001767
0.068500 -0.000476 -0.000005 0.001208 0.002537 0.000486 0.001773
0.071200 -0.000492 -0.000006 0.001247 0.002553 0.000486 0.001779
0.074000 -0.000509 -0.000006 0.001286 0.002570 0.000486 0.001785
0.076700 -0.000525 -0.000006 0.001325 0.002587 0.000486 0.001790
0.079500 -0.000542 -0.000006 0.001364 0.002605 0.000487 0.001795
0.082200 -0.000557 -0.000006 0.001401 0.002622 0.000487 0.001800
0.084900 -0.000573 -0.000007 0.001438 0.002639 0.000487 0.001804
0.087700 -0.000589 -0.000007 0.001476 0.002658 0.000487 0.001809
0.090400 -0.000604 -0.000007 0.001513 0.002675 0.000487 0.001813
0.093200 -0.000620 -0.000007 0.001551 0.002694 0.000487 0.001817
0.095900 -0.000635 -0.000008 0.001587 0.002712 0.000487 0.001821
0.098600 -0.000650 -0.000008 0.001622 0.002730 0.000487 0.001825
0.101400 -0.000666 -0.000008 0.001659 0.002749 0.000487 0.001829
0.104100 -0.000680 -0.000008 0.001694 0.002767 0.000488 0.001832
0.106900 -0.000696 -0.000008 0.001730 0.002786 0.000488 0.001836
0.109600 -0.000710 -0.000009 0.001765 0.002804 0.000488 0.001839
0.112300 -0.000725 -0.000009 0.001799 0.002822 0.000488 0.001843
0.115100 -0.000740 -0.000009 0.001835 0.002840 0.000488 0.001846
0.117800 -0.000754 -0.000009 0.001869 0.002858 0.000488 0.001849
0.120600 -0.000769 -0.000010 0.001903 0.002876 0.000488 0.001852
0.123300 -0.000783 -0.000010 0.001937 0.002894 0.000488 0.001855
0.126000 -0.000797 -0.000010 0.001970 0.002911 0.000488 0.001858
0.128800 -0.000811 -0.000010 0.002004 0.002929 0.000489 0.001861
0.131500 -0.000825 -0.000010 0.002037 0.002945 0.000489 0.001864
0.134300 -0.000840 -0.000011 0.002070 0.002963 0.000489 0.001867
0.137000 -0.000853 -0.000011 0.002102 0.002979 0.000489 0.001870
0.139700 -0.000867 -0.000011 0.002134 0.002995 0.000489 0.001872
0.142500 -0.000881 -0.000011 0.002167 0.003012 0.000489 0.001875
0.145200 -0.000895 -0.000012 0.002199 0.003027 0.000489 0.001877
0.147900 -0.000908 -0.000012 0.002230 0.003043 0.000490 0.001880
0.150700 -0.000922 -0.000012 0.002262 0.003058 0.000490 0.001882
0.153400 -0.000935 -0.000012 0.002293 0.003073 0.000490 0.001885
0.156200 -0.000949 -0.000012 0.002325 0.003088 0.000490 0.001887
0.158900 -0.000962 -0.000013 0.002355 0.003103 0.000490 0.001889
0.161600 -0.000975 -0.000013 0.002385 0.003116 0.000490 0.001891
0.164400 -0.000989 -0.000013 0.002416 0.003131 0.000491 0.001894
0.167100 -0.001002 -0.000013 0.002446 0.003144 0.000491 0.001896
0.169900 -0.001015 -0.000014 0.002476 0.003157 0.000491 0.001898
0.172600 -0.001028 -0.000014 0.002506 0.003170 0.000491 0.001900
0.175300 -0.001041 -0.000014 0.002535 0.003182 0.000491 0.001902
0.178100 -0.001054 -0.000014 0.002565 0.003195 0.000491 0.001904
0.180800 -0.001067 -0.000014 0.002593 0.003207 0.000492 0.001906
0.183600 -0.001080 -0.000015 0.002623 0.003219 0.000492 0.001908
0.186300 -0.001092 -0.000015 0.002651 0.003230 0.000492 0.001910
0.189000 -0.001105 -0.000015 0.002679 0.003241 0.000492 0.001911
0.191800 -0.001118 -0.000015 0.002708 0.003251 0.000492 0.001913
0.194500 -0.001130 -0.000015 0.002736 0.003262 0.000492 0.001915
0.197300 -0.001143 -0.000016 0.002764 0.003272 0.000493 0.001917
0.200000 -0.001155 -0.000016 0.002791 0.003281 0.000493 0.001918
0.202700 -0.001167 -0.000016 0.002819 0.003291 0.000493 0.001920
0.205500 -0.001180 -0.000016 0.002846 0.003300 0.000493 0.001922
0.208200 -0.001192 -0.000017 0.002873 0.003309 0.000493 0.001923
0.211000 -0.001205 -0.000017 0.002901 0.003317 0.000494 0.001925
0.213700 -0.001217 -0.000017 0.002927 0.003326 0.000494 0.001926
0.216400 -0.001229 -0.000017 0.002953 0.003333 0.000494 0.001928
0.219200 -0.001241 -0.000017 0.002980 0.003341 0.000494 0.001929
0.221900 -0.001253 -0.000018 0.003006 0.003348 0.000494 0.001931
0.224700 -0.001266 -0.000018 0.003032 0.003356 0.000495 0.001932
0.227400 -0.001278 -0.000018 0.003057 0.003362 0.000495 0.001934
0.230100 -0.001289 -0.000018 0.003083 0.003369 0.000495 0.001935
0.232900 -0.001302 -0.000019 0.003109 0.003375 0.000495 0.001936
0.235600 -0.001313 -0.000019 0.003133 0.003381 0.000495 0.001938
0.238400 -0.001326 -0.000019 0.003159 0.003387 0.000496 0.001939
0.241100 -0.001337 -0.000019 0.003183 0.003392 0.000496 0.001940
0.243800 -0.001349 -0.000019 0.003208 0.003397 0.000496 0.001941
0.246600 -0.001361 -0.000020 0.003233 0.003402 0.000496 0.001943
0.249300 -0.001372 -0.000020 0.003257 0.003407 0.000496 0.001944
0.252100 -0.001384 -0.000020 0.003281 0.003411 0.000497 0.001945
0.254800 -0.001396 -0.000020 0.003305 0.003416 0.000497 0.001946
0.257500 -0.001407 -0.000020 0.003328 0.003419 0.000497 0.001947
0.260300 -0.001419 -0.000021 0.003353 0.003423 0.000497 0.001948
0.263000 -0.001431 -0.000021 0.003376 0.003427 0.000497 0.001949
0.265800 -0.001442 -0.000021 0.003400 0.003430 0.000498 0.001951
0.268500 -0.001454 -0.000021 0.003422 0.003433 0.000498 0.001952
0.271200 -0.001465 -0.000022 0.003445 0.003436 0.000498 0.001953
0.274000 -0.001477 -0.000022 0.003468 0.003439 0.000498 0.001954
0.276700 -0.001488 -0.000022 0.003491 0.003441 0.000499 0.001955
0.279500 -0.001499 -0.000022 0.003514 0.003443 0.000499 0.001956
0.282200 -0.001511 -0.000022 0.003536 0.003445 0.000499 0.001957
0.284900 -0.001522 -0.000023 0.003557 0.003447 0.000499 0.001958
0.287700 -0.001533 -0.000023 0.003580 0.003449 0.000500 0.001959
0.290400 -0.001544 -0.000023 0.003601 0.003450 0.000500 0.001960
0.293200 -0.001556 -0.000023 0.003624 0.003452 0.000500 0.001961
0.295900 -0.001567 -0.000024 0.003645 0.003453 0.000500 0.001961
0.298600 -0.001578 -0.000024 0.003666 0.003454 0.000501 0.001962
0.301400 -0.001589 -0.000024 0.003688 0.003455 0.000501 0.001963
0.304100 -0.001600 -0.000024 0.003708 0.003455 0.000501 0.001964
0.306900 -0.001611 -0.000024 0.003730 0.003456 0.000501 0.001965
0.309600 -0.001622 -0.000025 0.003750 0.003456 0.000502 0.001966
0.312300 -0.001633 -0.000025 0.003771 0.003456 0.000502 0.001967
0.315100 -0.001644 -0.000025 0.003792 0.003456 0.000502 0.001968
0.317800 -0.001655 -0.000025 0.003812 0.003456 0.000502 0.001968
0.320600 -0.001666 -0.000025 0.003832 0.003456 0.000503 0.001969
0.323300 -0.001677 -0.000026 0.003852 0.003455 0.000503 0.001970
0.326000 -0.001688 -0.000026 0.003872 0.003455 0.000503 0.001971
0.328800 -0.001699 -0.000026 0.003892 0.003454 0.000503 0.001972
0.331500 -0.001709 -0.000026 0.003912 0.003453 0.000504 0.001972
0.334300 -0.001720 -0.000027 0.003932 0.003452 0.000504 0.001973
0.337000 -0.001731 -0.000027 0.003951 0.003451 0.000504 0.001974
0.339700 -0.001742 -0.000027 0.003970 0.003450 0.000505 0.001975
0.342500 -0.001753 -0.000027 0.003989 0.003449 0.000505 0.001976
0.345200 -0.001763 -0.000027 0.004008 0.003447 0.000505 0.001976
0.347900 -0.001774 -0.000028 0.004026 0.003446 0.000505 0.001977
0.350700 -0.001784 -0.000028 0.004046 0.003444 0.000506 0.001978
0.353400 -0.001795 -0.000028 0.004064 0.003442 0.000506 0.001979
0.356200 -0.001806 -0.000028 0.004083 0.003440 0.000506 0.001979
0.358900 -0.001816 -0.000029 0.004101 0.003438 0.000506 0.001980
0.361600 -0.001827 -0.000029 0.004119 0.003436 0.000507 0.001981
0.364400 -0.001837 -0.000029 0.004137 0.003434 0.000507 0.001981
0.367100 -0.001848 -0.000029 0.004155 0.003432 0.000507 0.001982
0.369900 -0.001858 -0.000029 0.004173 0.003430 0.000508 0.001983
0.372600 -0.001869 -0.000030 0.004191 0.003427 0.000508 0.001984
0.375300 -0.001879 -0.000030 0.004208 0.003425 0.000508 0.001984
0.378100 -0.001890 -0.000030 0.004226 0.003422 0.000509 0.001985
0.380800 -0.001900 -0.000030 0.004243 0.003420 0.000509 0.001986
0.383600 -0.001910 -0.000030 0.004261 0.003417 0.000509 0.001986
0.386300 -0.001921 -0.000031 0.004277 0.003414 0.000509 0.001987
0.389000 -0.001931 -0.000031 0.004294 0.003411 0.000510 0.001988
0.391800 -0.001941 -0.000031 0.004311 0.003408 0.000510 0.001988
0.394500 -0.001952 -0.000031 0.004328 0.003405 0.000510 0.001989
0.397300 -0.001962 -0.000032 0.004345 0.003402 0.000511 0.001990
0.400000 -0.001972 -0.000032 0.004361 0.003399 0.000511 0.001990
0.402700 -0.001982 -0.000032 0.004377 0.003396 0.000511 0.001991
0.405500 -0.001993 -0.000032 0.004394 0.003393 0.000512 0.001992
0.408200 -0.002003 -0.000032 0.004410 0.003390 0.000512 0.001992
0.411000 -0.002013 -0.000033 0.004426 0.003386 0.000512 0.001993
0.413700 -0.002023 -0.000033 0.004442 0.003383 0.000513 0.001994
0.416400 -0.002033 -0.000033 0.004458 0.003380 0.000513 0.001994
0.419200 -0.002043 -0.000033 0.004474 0.003376 0.000513 0.001995
0.421900 -0.002053 -0.000033 0.004489 0.003373 0.000514 0.001996
0.424700 -0.002064 -0.000034 0.004505 0.003369 0.000514 0.001996
0.427400 -0.002074 -0.000034 0.004520 0.003365 0.000514 0.001997
0.430100 -0.002083 -0.000034 0.004535 0.003362 0.000514 0.001998
0.432900 -0.002094 -0.000034 0.004551 0.003358 0.000515 0.001998
0.435600 -0.002104 -0.000035 0.004566 0.003354 0.000515 0.001999
0.438400 -0.002114 -0.000035 0.004581 0.003351 0.000515 0.002000
0.441100 -0.002124 -0.000035 0.004596 0.003347 0.000516 0.002000
0.443800 -0.002133 -0.000035 0.004611 0.003343 0.000516 0.002001
0.446600 -0.002143 -0.000035 0.004626 0.003339 0.000516 0.002002
0.449300 -0.002153 -0.000036 0.004640 0.003335 0.000517 0.002002
0.452100 -0.002163 -0.000036 0.004655 0.003331 0.000517 0.002003
0.454800 -0.002173 -0.000036 0.004669 0.003328 0.000518 0.002004
0.457500 -0.002183 -0.000036 0.004683 0.003324 0.000518 0.002004
0.460300 -0.002193 -0.000036 0.004698 0.003320 0.000518 0.002005
0.463000 -0.002203 -0.000037 0.004711 0.003316 0.000519 0.002005
0.465800 -0.002213 -0.000037 0.004726 0.003312 0.000519 0.002006
0.468500 -0.002222 -0.000037 0.004739 0.003308 0.000519 0.002007
0.471200 -0.002232 -0.000037 0.004753 0.003304 0.000520 0.002007
0.474000 -0.002242 -0.000037 0.004767 0.003300 0.000520 0.002008
0.476700 -0.002251 -0.000038 0.004781 0.003296 0.000520 0.002009
0.479500 -0.002261 -0.000038 0.004794 0.003291 0.000521 0.002009
0.482200 -0.002271 -0.000038 0.004808 0.003287 0.000521 0.002010
0.484900 -0.002280 -0.000038 0.004821 0.003283 0.000521 0.002011
0.487700 -0.002290 -0.000039 0.004834 0.003279 0.000522 0.002011
0.490400 -0.002300 -0.000039 0.004847 0.003275 0.000522 0.002012
0.493200 -0.002310 -0.000039 0.004861 0.003271 0.000522 0.002013
0.495900 -0.002319 -0.000039 0.004873 0.003267 0.000523 0.002013
0.498600 -0.002329 -0.000039 0.004886 0.003263 0.000523 0.002014
0.501400 -0.002338 -0.000040 0.004899 0.003259 0.000524 0.002014
0.504100 -0.002348 -0.000040 0.004912 0.003254 0.000524 0.002015
0.506900 -0.002358 -0.000040 0.004925 0.003250 0.000524 0.002016
0.509600 -0.002367 -0.000040 0.004937 0.003246 0.000525 0.002016
0.512300 -0.002376 -0.000040 0.004949 0.003242 0.000525 0.002017
0.517800 -0.002395 -0.000041 0.004974 0.003234 0.000526 0.002018
0.520600 -0.002405 -0.000041 0.004987 0.003229 0.000526 0.002019
0.523300 -0.002414 -0.000041 0.004999 0.003225 0.000527 0.002020
0.526000 -0.002424 -0.000041 0.005011 0.003221 0.000527 0.002020
0.528800 -0.002433 -0.000042 0.005023 0.003217 0.000527 0.002021
0.531500 -0.002443 -0.000042 0.005035 0.003213 0.000528 0.002021
0.534300 -0.002452 -0.000042 0.005047 0.003209 0.000528 0.002022
0.537000 -0.002462 -0.000042 0.005058 0.003205 0.000528 0.002023
0.539700 -0.002471 -0.000043 0.005070 0.003201 0.000529 0.002023
0.542500 -0.002480 -0.000043 0.005081 0.003196 0.000529 0.002024
0.545200 -0.002490 -0.000043 0.005093 0.003192 0.000530 0.002025
0.547900 -0.002499 -0.000043 0.005104 0.003188 0.000530 0.002025
0.550700 -0.002508 -0.000043 0.005116 0.003184 0.000530 0.002026
0.553400 -0.002517 -0.000044 0.005127 0.003180 0.000531 0.002027
0.556200 -0.002527 -0.000044 0.005138 0.003176 0.000531 0.002027
0.558900 -0.002536 -0.000044 0.005149 0.003172 0.000532 0.002028
0.561600 -0.002545 -0.000044 0.005160 0.003168 0.000532 0.002029
0.564400 -0.002555 -0.000044 0.005171 0.003164 0.000532 0.002029
0.567100 -0.002564 -0.000045 0.005182 0.003160 0.000533 0.002030
0.569900 -0.002573 -0.000045 0.005193 0.003156 0.000533 0.002030
0.572600 -0.002582 -0.000045 0.005204 0.003152 0.000534 0.002031
0.575300 -0.002591 -0.000045 0.005214 0.003148 0.000534 0.002032
0.578100 -0.002601 -0.000045 0.005225 0.003144 0.000534 0.002032
0.580800 -0.002610 -0.000046 0.005235 0.003140 0.000535 0.002033
0.583600 -0.002619 -0.000046 0.005246 0.003136 0.000535 0.002034
0.586300 -0.002628 -0.000046 0.005256 0.003132 0.000536 0.002034
0.589000 -0.002637 -0.000046 0.005266 0.003128 0.000536 0.002035
0.591800 -0.002646 -0.000047 0.005277 0.003124 0.000536 0.002036
0.594500 -0.002655 -0.000047 0.005287 0.003121 0.000537 0.002036
0.597300 -0.002664 -0.000047 0.005297 0.003117 0.000537 0.002037
0.600000 -0.002673 -0.000047 0.005307 0.003113 0.000538 0.002038
0.602700 -0.002682 -0.000047 0.005317 0.003109 0.000538 0.002038
0.605500 -0.002691 -0.000048 0.005327 0.003105 0.000538 0.002039
0.608200 -0.002700 -0.000048 0.005337 0.003101 0.000539 0.002039
0.611000 -0.002709 -0.000048 0.005347 0.003098 0.000539 0.002040
0.613700 -0.002718 -0.000048 0.005356 0.003094 0.000540 0.002041
0.616400 -0.002727 -0.000048 0.005366 0.003090 0.000540 0.002041
0.619200 -0.002736 -0.000049 0.005376 0.003086 0.000540 0.002042
0.621900 -0.002745 -0.000049 0.005385 0.003083 0.000541 0.002043
0.624700 -0.002754 -0.000049 0.005395 0.003079 0.000541 0.002043
0.627400 -0.002763 -0.000049 0.005404 0.003075 0.000542 0.002044
0.630100 -0.002772 -0.000049 0.005413 0.003072 0.000542 0.002044
0.632900 -0.002781 -0.000050 0.005423 0.003068 0.000543 0.002045
0.635600 -0.002790 -0.000050 0.005432 0.003065 0.000543 0.002046
0.638400 -0.002799 -0.000050 0.005441 0.003061 0.000543 0.002046
0.641100 -0.002807 -0.000050 0.005450 0.003058 0.000544 0.002047
0.643800 -0.002816 -0.000050 0.005459 0.003054 0.000544 0.002048
0.646600 -0.002825 -0.000051 0.005468 0.003051 0.000545 0.002048
0.649300 -0.002834 -0.000051 0.005477 0.003047 0.000545 0.002049
0.652100 -0.002843 -0.000051 0.005486 0.003044 0.000546 0.002050
0.654800 -0.002851 -0.000051 0.005495 0.003040 0.000546 0.002050
0.657500 -0.002860 -0.000051 0.005503 0.003037 0.000546 0.002051
0.660300 -0.002869 -0.000052 0.005512 0.003033 0.000547 0.002051
0.663000 -0.002878 -0.000052 0.005521 0.003030 0.000547 0.002052
0.665800 -0.002887 -0.000052 0.005529 0.003027 0.000548 0.002053
0.668500 -0.002895 -0.000052 0.005538 0.003023 0.000548 0.002053
0.671200 -0.002904 -0.000053 0.005546 0.003020 0.000549 0.002054
0.674000 -0.002913 -0.000053 0.005555 0.003017 0.000549 0.002055
0.676700 -0.002921 -0.000053 0.005563 0.003014 0.000550 0.002055
0.679500 -0.002930 -0.000053 0.005571 0.003010 0.000550 0.002056
0.682200 -0.002938 -0.000053 0.005579 0.003007 0.000550 0.002056
0.684900 -0.002947 -0.000054 0.005587 0.003004 0.000551 0.002057
0.687700 -0.002956 -0.000054 0.005596 0.003001 0.000551 0.002058
0.690400 -0.002964 -0.000054 0.005604 0.002998 0.000552 0.002058
0.693200 -0.002973 -0.000054 0.005612 0.002994 0.000552 0.002059
0.695900 -0.002982 -0.000054 0.005620 0.002991 0.000553 0.002059
0.698600 -0.002990 -0.000055 0.005627 0.002988 0.000553 0.002060
0.701400 -0.002999 -0.000055 0.005635 0.002985 0.000554 0.002061
0.704100 -0.003007 -0.000055 0.005643 0.002982 0.000554 0.002061
0.706900 -0.003016 -0.000055 0.005651 0.002979 0.000555 0.002062
0.709600 -0.003024 -0.000055 0.005658 0.002976 0.000555 0.002063
0.712300 -0.003033 -0.000056 0.005666 0.002973 0.000555 0.002063
0.715100 -0.003041 -0.000056 0.005674 0.002970 0.000556 0.002064
0.717800 -0.003050 -0.000056 0.005681 0.002967 0.000556 0.002064
0.720600 -0.003058 -0.000056 0.005689 0.002965 0.000557 0.002065
0.723300 -0.003067 -0.000056 0.005696 0.002962 0.000557 0.002066
0.726000 -0.003075 -0.000057 0.005703 0.002959 0.000558 0.002066
0.728800 -0.003084 -0.000057 0.005711 0.002956 0.000558 0.002067
0.731500 -0.003092 -0.000057 0.005718 0.002953 0.000559 0.002067
0.734300 -0.003100 -0.000057 0.005725 0.002951 0.000559 0.002068
0.737000 -0.003109 -0.000057 0.005733 0.002948 0.000560 0.002069
0.739700 -0.003117 -0.000058 0.005740 0.002945 0.000560 0.002069
0.742500 -0.003126 -0.000058 0.005747 0.002942 0.000561 0.002070
0.745200 -0.003134 -0.000058 0.005754 0.002940 0.000561 0.002070
0.747900 -0.003142 -0.000058 0.005761 0.002937 0.000561 0.002071
0.750700 -0.003151 -0.000058 0.005768 0.002934 0.000562 0.002072
0.753400 -0.003159 -0.000059 0.005775 0.002932 0.000562 0.002072
0.756200 -0.003167 -0.000059 0.005782 0.002929 0.000563 0.002073
0.758900 -0.003175 -0.000059 0.005788 0.002927 0.000563 0.002073
0.761600 -0.003184 -0.000059 0.005795 0.002924 0.000564 0.002074
0.764400 -0.003192 -0.000059 0.005802 0.002922 0.000564 0.002075
0.767100 -0.003200 -0.000060 0.005808 0.002919 0.000565 0.002075
0.769900 -0.003209 -0.000060 0.005815 0.002917 0.000565 0.002076
0.772600 -0.003217 -0.000060 0.005822 0.002914 0.000566 0.002076
0.775300 -0.003225 -0.000060 0.005828 0.002912 0.000566 0.002077
0.778100 -0.003233 -0.000060 0.005835 0.002910 0.000567 0.002078
0.780800 -0.003241 -0.000061 0.005841 0.002907 0.000567 0.002078
0.783600 -0.003250 -0.000061 0.005848 0.002905 0.000568 0.002079
0.786300 -0.003258 -0.000061 0.005854 0.002903 0.000568 0.002079
0.789000 -0.003266 -0.000061 0.005860 0.002900 0.000569 0.002080
0.791800 -0.003274 -0.000061 0.005867 0.002898 0.000569 0.002080
0.794500 -0.003282 -0.000062 0.005873 0.002896 0.000570 0.002081
0.797300 -0.003290 -0.000062 0.005879 0.002893 0.000570 0.002082
0.800000 -0.003298 -0.000062 0.005885 0.002891 0.000571 0.002082
0.802700 -0.003306 -0.000062 0.005891 0.002889 0.000571 0.002083
0.805500 -0.003315 -0.000062 0.005898 0.002887 0.000571 0.002083
0.808200 -0.003323 -0.000063 0.005904 0.002885 0.000572 0.002084
0.811000 -0.003331 -0.000063 0.005910 0.002883 0.000572 0.002085
0.813700 -0.003339 -0.000063 0.005916 0.002881 0.000573 0.002085
0.816400 -0.003347 -0.000063 0.005922 0.002879 0.000573 0.002086
0.819200 -0.003355 -0.000063 0.005928 0.002876 0.000574 0.002086
0.821900 -0.003363 -0.000064 0.005933 0.002874 0.000574 0.002087
0.824700 -0.003371 -0.000064 0.005939 0.002872 0.000575 0.002087
0.827400 -0.003379 -0.000064 0.005945 0.002870 0.000575 0.002088
0.830100 -0.003387 -0.000064 0.005951 0.002869 0.000576 0.002089
0.832900 -0.003395 -0.000064 0.005956 0.002867 0.000576 0.002089
0.835600 -0.003403 -0.000065 0.005962 0.002865 0.000577 0.002090
0.838400 -0.003411 -0.000065 0.005968 0.002863 0.000577 0.002090
