# time (yr) north(m) east(m) up(m) northsigma(m) eastsigma(m) upsigma(m)
0.000000 0.000000 0.000000 0.000000 0.003218 0.002286 0.001682
0.002700 -0.000033 0.000003 0.000001 0.003232 0.002287 0.001682
0.005500 -0.000068 0.000006 0.000001 0.003269 0.002290 0.001682
0.008200 -0.000101 0.000009 0.000002 0.003320 0.002295 0.001682
0.011000 -0.000136 0.000012 0.000003 0.003385 0.002300 0.001682
0.013700 -0.000169 0.000014 0.000004 0.003453 0.002306 0.001682
0.016400 -0.000203 0.000017 0.000004 0.003524 0.002313 0.001682
0.019200 -0.000238 0.000020 0.000005 0.003598 0.002320 0.001682
0.021900 -0.000272 0.000023 0.000006 0.003669 0.002328 0.001682
0.024700 -0.000308 0.000026 0.000006 0.003740 0.002337 0.001682
0.027400 -0.000342 0.000028 0.000007 0.003805 0.002345 0.001682
0.030100 -0.000376 0.000031 0.000008 0.003867 0.002355 0.001682
0.032900 -0.000411 0.000034 0.000009 0.003928 0.002365 0.001683
0.035600 -0.000446 0.000037 0.000009 0.003982 0.002375 0.001683
0.038400 -0.000481 0.000040 0.000010 0.004035 0.002386 0.001683
0.041100 -0.000515 0.000042 0.000011 0.004082 0.002396 0.001683
0.043800 -0.000550 0.000045 0.000011 0.004125 0.002407 0.001683
0.046600 -0.000585 0.000048 0.000012 0.004166 0.002419 0.001683
0.049300 -0.000619 0.000051 0.000013 0.004203 0.002431 0.001684
0.052100 -0.000655 0.000053 0.000014 0.004238 0.002443 0.001684
0.054800 -0.000689 0.000056 0.000014 0.004269 0.002455 0.001684
0.057500 -0.000723 0.000059 0.000015 0.004298 0.002467 0.001684
0.060300 -0.000758 0.000062 0.000016 0.004325 0.002480 0.001685
0.063000 -0.000792 0.000064 0.000016 0.004349 0.002493 0.001685
0.065800 -0.000827 0.000067 0.000017 0.004372 0.002506 0.001685
0.068500 -0.000861 0.000070 0.000018 0.004392 0.002519 0.001686
0.071200 -0.000895 0.000072 0.000019 0.004410 0.002532 0.001686
0.074000 -0.000930 0.000075 0.000019 0.004428 0.002545 0.001686
0.076700 -0.000963 0.000078 0.000020 0.004444 0.002558 0.001686
0.079500 -0.000998 0.000081 0.000021 0.004459 0.002572 0.001687
0.082200 -0.001031 0.000083 0.000021 0.004472 0.002585 0.001687
0.084900 -0.001064 0.000086 0.000022 0.004484 0.002598 0.001687
0.087700 -0.001099 0.000089 0.000023 0.004496 0.002612 0.001688
0.090400 -0.001132 0.000091 0.000024 0.004507 0.002625 0.001688
0.093200 -0.001166 0.000094 0.000024 0.004517 0.002639 0.001689
0.095900 -0.001199 0.000097 0.000025 0.004527 0.002652 0.001689
0.098600 -0.001232 0.000099 0.000026 0.004535 0.002666 0.001689
0.101400 -0.001266 0.000102 0.000027 0.004544 0.002679 0.001690
0.104100 -0.001298 0.000105 0.000027 0.004552 0.002693 0.001690
0.106900 -0.001332 0.000107 0.000028 0.004559 0.002706 0.001690
0.109600 -0.001364 0.000110 0.000029 0.004566 0.002719 0.001691
0.112300 -0.001396 0.000113 0.000029 0.004573 0.002733 0.001691
0.115100 -0.001429 0.000115 0.000030 0.004580 0.002746 0.001692
0.117800 -0.001461 0.000118 0.000031 0.004586 0.002759 0.001692
0.120600 -0.001494 0.000121 0.000032 0.004593 0.002773 0.001693
0.123300 -0.001525 0.000123 0.000032 0.004599 0.002786 0.001693
0.126000 -0.001557 0.000126 0.000033 0.004605 0.002798 0.001694
0.128800 -0.001589 0.000128 0.000034 0.004611 0.002812 0.001694
0.131500 -0.001620 0.000131 0.000035 0.004616 0.002824 0.001694
0.134300 -0.001652 0.000134 0.000035 0.004622 0.002838 0.001695
0.137000 -0.001683 0.000136 0.000036 0.004628 0.002850 0.001695
0.139700 -0.001714 0.000139 0.000037 0.004634 0.002863 0.001696
0.142500 -0.001746 0.000142 0.000038 0.004640 0.002876 0.001696
0.145200 -0.001776 0.000144 0.000038 0.004645 0.002888 0.001697
0.147900 -0.001806 0.000147 0.000039 0.004651 0.002900 0.001697
0.150700 -0.001838 0.000149 0.000040 0.004657 0.002913 0.001698
0.153400 -0.001868 0.000152 0.000040 0.004663 0.002925 0.001698
0.156200 -0.001898 0.000155 0.000041 0.004669 0.002937 0.001699
0.158900 -0.001928 0.000157 0.000042 0.004675 0.002949 0.001699
0.161600 -0.001958 0.000160 0.000043 0.004681 0.002961 0.001700
0.164400 -0.001988 0.000162 0.000043 0.004687 0.002973 0.001701
0.167100 -0.002017 0.000165 0.000044 0.004693 0.002985 0.001701
0.169900 -0.002047 0.000167 0.000045 0.004700 0.002997 0.001702
0.172600 -0.002076 0.000170 0.000046 0.004706 0.003009 0.001702
0.175300 -0.002105 0.000173 0.000046 0.004713 0.003020 0.001703
0.178100 -0.002135 0.000175 0.000047 0.004720 0.003032 0.001703
0.180800 -0.002163 0.000178 0.000048 0.004727 0.003043 0.001704
0.183600 -0.002192 0.000180 0.000049 0.004734 0.003054 0.001705
0.186300 -0.002220 0.000183 0.000050 0.004741 0.003065 0.001705
0.189000 -0.002248 0.000185 0.000050 0.004748 0.003076 0.001706
0.191800 -0.002277 0.000188 0.000051 0.004755 0.003088 0.001706
0.194500 -0.002305 0.000190 0.000052 0.004763 0.003098 0.001707
0.200000 -0.002360 0.000196 0.000053 0.004778 0.003120 0.001708
0.202700 -0.002388 0.000198 0.000054 0.004786 0.003131 0.001709
0.205500 -0.002416 0.000201 0.000055 0.004794 0.003141 0.001709
0.208200 -0.002442 0.000203 0.000056 0.004802 0.003152 0.001710
0.211000 -0.002470 0.000206 0.000057 0.004810 0.003162 0.001711
0.213700 -0.002497 0.000208 0.000057 0.004819 0.003173 0.001711
0.216400 -0.002523 0.000211 0.000058 0.004827 0.003183 0.001712
0.219200 -0.002550 0.000213 0.000059 0.004836 0.003193 0.001713
0.221900 -0.002576 0.000216 0.000060 0.004844 0.003203 0.001713
0.224700 -0.002603 0.000218 0.000060 0.004853 0.003213 0.001714
0.227400 -0.002629 0.000221 0.000061 0.004862 0.003223 0.001715
0.230100 -0.002654 0.000223 0.000062 0.004871 0.003233 0.001715
0.232900 -0.002681 0.000226 0.000063 0.004880 0.003243 0.001716
0.235600 -0.002706 0.000228 0.000064 0.004889 0.003252 0.001717
0.238400 -0.002732 0.000231 0.000064 0.004899 0.003262 0.001717
0.241100 -0.002757 0.000233 0.000065 0.004908 0.003271 0.001718
0.243800 -0.002782 0.000235 0.000066 0.004917 0.003281 0.001719
0.246600 -0.002807 0.000238 0.000067 0.004927 0.003290 0.001719
0.249300 -0.002832 0.000240 0.000068 0.004937 0.003299 0.001720
0.252100 -0.002857 0.000243 0.000068 0.004947 0.003309 0.001721
0.254800 -0.002881 0.000245 0.000069 0.004957 0.003318 0.001722
0.257500 -0.002905 0.000248 0.000070 0.004967 0.003327 0.001722
0.260300 -0.002930 0.000250 0.000071 0.004977 0.003336 0.001723
0.263000 -0.002954 0.000253 0.000072 0.004987 0.003345 0.001724
0.265800 -0.002978 0.000255 0.000072 0.004997 0.003354 0.001724
0.268500 -0.003001 0.000258 0.000073 0.005008 0.003362 0.001725
0.271200 -0.003025 0.000260 0.000074 0.005018 0.003371 0.001726
0.274000 -0.003049 0.000262 0.000075 0.005029 0.003380 0.001727
0.276700 -0.003072 0.000265 0.000076 0.005039 0.003388 0.001727
0.279500 -0.003095 0.000267 0.000076 0.005050 0.003397 0.001728
0.282200 -0.003118 0.000270 0.000077 0.005061 0.003405 0.001729
0.284900 -0.003141 0.000272 0.000078 0.005071 0.003413 0.001730
0.287700 -0.003164 0.000274 0.000079 0.005082 0.003422 0.001731
0.290400 -0.003186 0.000277 0.000080 0.005093 0.003430 0.001731
0.293200 -0.003209 0.000279 0.000080 0.005105 0.003438 0.001732
0.295900 -0.003231 0.000282 0.000081 0.005115 0.003446 0.001733
0.298600 -0.003253 0.000284 0.000082 0.005126 0.003454 0.001734
0.301400 -0.003275 0.000286 0.000083 0.005138 0.003463 0.001735
0.304100 -0.003297 0.000289 0.000084 0.005149 0.003470 0.001735
0.306900 -0.003319 0.000291 0.000084 0.005161 0.003478 0.001736
0.309600 -0.003340 0.000293 0.000085 0.005172 0.003486 0.001737
0.312300 -0.003361 0.000296 0.000086 0.005183 0.003494 0.001738
0.315100 -0.003383 0.000298 0.000087 0.005195 0.003502 0.001739
0.317800 -0.003404 0.000300 0.000088 0.005206 0.003509 0.001739
0.320600 -0.003425 0.000303 0.000089 0.005218 0.003517 0.001740
0.323300 -0.003446 0.000305 0.000089 0.005229 0.003524 0.001741
0.326000 -0.003466 0.000307 0.000090 0.005241 0.003532 0.001742
0.328800 -0.003487 0.000310 0.000091 0.005253 0.003540 0.001743
0.331500 -0.003507 0.000312 0.000092 0.005264 0.003547 0.001744
0.334300 -0.003528 0.000314 0.000093 0.005276 0.003554 0.001745
0.342500 -0.003588 0.000321 0.000095 0.005312 0.003576 0.001747
0.345200 -0.003608 0.000324 0.000096 0.005323 0.003583 0.001748
0.413700 -0.004061 0.000379 0.000117 0.005626 0.003749 0.001772
0.416400 -0.004077 0.000381 0.000118 0.005638 0.003755 0.001772
0.419200 -0.004094 0.000384 0.000119 0.005650 0.003761 0.001774
0.421900 -0.004110 0.000386 0.000119 0.005662 0.003768 0.001775
0.424700 -0.004127 0.000388 0.000120 0.005674 0.003774 0.001776
0.427400 -0.004142 0.000390 0.000121 0.005686 0.003780 0.001777
0.430100 -0.004158 0.000392 0.000122 0.005698 0.003786 0.001778
0.432900 -0.004174 0.000394 0.000123 0.005711 0.003792 0.001779
0.435600 -0.004190 0.000396 0.000124 0.005723 0.003798 0.001780
0.438400 -0.004206 0.000399 0.000124 0.005735 0.003804 0.001781
0.441100 -0.004221 0.000401 0.000125 0.005747 0.003810 0.001782
0.443800 -0.004237 0.000403 0.000126 0.005759 0.003815 0.001783
0.446600 -0.004252 0.000405 0.000127 0.005771 0.003821 0.001784
0.449300 -0.004267 0.000407 0.000128 0.005783 0.003827 0.001785
0.452100 -0.004283 0.000409 0.000129 0.005795 0.003833 0.001786
0.454800 -0.004298 0.000411 0.000130 0.005807 0.003839 0.001787
0.457500 -0.004312 0.000413 0.000130 0.005819 0.003844 0.001788
0.460300 -0.004328 0.000415 0.000131 0.005831 0.003850 0.001789
0.463000 -0.004342 0.000418 0.000132 0.005843 0.003856 0.001790
0.465800 -0.004357 0.000420 0.000133 0.005855 0.003862 0.001791
0.468500 -0.004371 0.000422 0.000134 0.005867 0.003867 0.001792
0.471200 -0.004386 0.000424 0.000135 0.005878 0.003873 0.001793
0.474000 -0.004400 0.000426 0.000136 0.005891 0.003879 0.001795
0.476700 -0.004414 0.000428 0.000136 0.005902 0.003884 0.001796
0.479500 -0.004429 0.000430 0.000137 0.005914 0.003890 0.001797
0.482200 -0.004443 0.000432 0.000138 0.005926 0.003895 0.001798
0.484900 -0.004457 0.000434 0.000139 0.005938 0.003901 0.001799
0.487700 -0.004471 0.000436 0.000140 0.005950 0.003906 0.001800
0.490400 -0.004484 0.000438 0.000141 0.005961 0.003912 0.001801
0.493200 -0.004498 0.000440 0.000141 0.005973 0.003917 0.001802
0.495900 -0.004512 0.000442 0.000142 0.005985 0.003923 0.001803
0.498600 -0.004525 0.000444 0.000143 0.005996 0.003928 0.001804
0.501400 -0.004539 0.000446 0.000144 0.006008 0.003933 0.001806
0.504100 -0.004552 0.000448 0.000145 0.006019 0.003939 0.001807
0.506900 -0.004565 0.000450 0.000146 0.006031 0.003944 0.001808
0.509600 -0.004578 0.000452 0.000147 0.006043 0.003950 0.001809
0.512300 -0.004591 0.000454 0.000147 0.006054 0.003955 0.001810
0.517800 -0.004617 0.000458 0.000149 0.006077 0.003965 0.001813
0.520600 -0.004630 0.000460 0.000150 0.006089 0.003971 0.001814
0.523300 -0.004643 0.000462 0.000151 0.006100 0.003976 0.001815
0.526000 -0.004655 0.000464 0.000152 0.006111 0.003981 0.001816
0.528800 -0.004668 0.000466 0.000153 0.006123 0.003986 0.001817
0.531500 -0.004680 0.000468 0.000153 0.006134 0.003992 0.001818
0.534300 -0.004693 0.000470 0.000154 0.006145 0.003997 0.001820
0.537000 -0.004705 0.000472 0.000155 0.006156 0.004002 0.001821
0.539700 -0.004717 0.000474 0.000156 0.006168 0.004007 0.001822
0.542500 -0.004729 0.000476 0.000157 0.006179 0.004012 0.001823
0.545200 -0.004741 0.000478 0.000158 0.006190 0.004017 0.001824
0.547900 -0.004753 0.000480 0.000159 0.006201 0.004022 0.001826
0.550700 -0.004765 0.000482 0.000159 0.006212 0.004027 0.001827
0.553400 -0.004777 0.000483 0.000160 0.006223 0.004032 0.001828
0.556200 -0.004789 0.000485 0.000161 0.006234 0.004038 0.001829
0.558900 -0.004800 0.000487 0.000162 0.006245 0.004043 0.001830
0.561600 -0.004812 0.000489 0.000163 0.006256 0.004048 0.001832
0.564400 -0.004824 0.000491 0.000164 0.006267 0.004053 0.001833
0.567100 -0.004835 0.000493 0.000165 0.006278 0.004058 0.001834
0.569900 -0.004846 0.000495 0.000165 0.006289 0.004063 0.001835
0.572600 -0.004858 0.000497 0.000166 0.006300 0.004068 0.001837
0.575300 -0.004869 0.000499 0.000167 0.006310 0.004072 0.001838
0.578100 -0.004880 0.000500 0.000168 0.006321 0.004077 0.001839
0.580800 -0.004891 0.000502 0.000169 0.006332 0.004082 0.001840
0.583600 -0.004902 0.000504 0.000170 0.006343 0.004087 0.001842
0.586300 -0.004913 0.000506 0.000171 0.006353 0.004092 0.001843
0.589000 -0.004924 0.000508 0.000171 0.006364 0.004097 0.001844
0.591800 -0.004935 0.000510 0.000172 0.006374 0.004102 0.001845
0.594500 -0.004945 0.000512 0.000173 0.006385 0.004107 0.001847
0.597300 -0.004956 0.000513 0.000174 0.006395 0.004112 0.001848
0.600000 -0.004967 0.000515 0.000175 0.006406 0.004116 0.001849
0.602700 -0.004977 0.000517 0.000176 0.006416 0.004121 0.001850
0.605500 -0.004988 0.000519 0.000177 0.006427 0.004126 0.001852
0.608200 -0.004998 0.000521 0.000177 0.006437 0.004131 0.001853
0.611000 -0.005008 0.000523 0.000178 0.006447 0.004136 0.001854
0.613700 -0.005019 0.000524 0.000179 0.006457 0.004140 0.001856
0.616400 -0.005029 0.000526 0.000180 0.006467 0.004145 0.001857
0.619200 -0.005039 0.000528 0.000181 0.006478 0.004150 0.001858
0.621900 -0.005049 0.000530 0.000182 0.006488 0.004154 0.001860
0.624700 -0.005059 0.000532 0.000183 0.006498 0.004159 0.001861
0.627400 -0.005069 0.000533 0.000183 0.006508 0.004164 0.001862
0.630100 -0.005079 0.000535 0.000184 0.006518 0.004169 0.001863
0.632900 -0.005089 0.000537 0.000185 0.006528 0.004173 0.001865
0.635600 -0.005098 0.000539 0.000186 0.006538 0.004178 0.001866
0.638400 -0.005108 0.000541 0.000187 0.006548 0.004183 0.001868
0.641100 -0.005118 0.000542 0.000188 0.006558 0.004187 0.001869
0.643800 -0.005127 0.000544 0.000189 0.006568 0.004192 0.001870
0.646600 -0.005137 0.000546 0.000189 0.006578 0.004197 0.001872
0.649300 -0.005146 0.000547 0.000190 0.006587 0.004201 0.001873
0.652100 -0.005156 0.000549 0.000191 0.006597 0.004206 0.001874
0.654800 -0.005165 0.000551 0.000192 0.006607 0.004210 0.001876
0.657500 -0.005174 0.000553 0.000193 0.006616 0.004215 0.001877
0.660300 -0.005184 0.000554 0.000194 0.006626 0.004219 0.001878
0.663000 -0.005193 0.000556 0.000195 0.006635 0.004224 0.001880
0.665800 -0.005202 0.000558 0.000196 0.006645 0.004229 0.001881
0.668500 -0.005211 0.000560 0.000196 0.006655 0.004233 0.001882
0.671200 -0.005220 0.000561 0.000197 0.006664 0.004238 0.001884
0.674000 -0.005229 0.000563 0.000198 0.006673 0.004242 0.001885
0.676700 -0.005238 0.000565 0.000199 0.006683 0.004247 0.001887
0.679500 -0.005247 0.000566 0.000200 0.006692 0.004251 0.001888
0.682200 -0.005256 0.000568 0.000201 0.006701 0.004256 0.001889
0.684900 -0.005264 0.000570 0.000202 0.006711 0.004260 0.001891
0.687700 -0.005273 0.000572 0.000202 0.006720 0.004265 0.001892
0.690400 -0.005282 0.000573 0.000203 0.006729 0.004269 0.001893
0.693200 -0.005291 0.000575 0.000204 0.006738 0.004274 0.001895
0.695900 -0.005299 0.000577 0.000205 0.006747 0.004278 0.001896
0.698600 -0.005307 0.000578 0.000206 0.006756 0.004282 0.001898
0.701400 -0.005316 0.000580 0.000207 0.006765 0.004287 0.001899
0.704100 -0.005324 0.000582 0.000208 0.006774 0.004291 0.001901
0.706900 -0.005333 0.000583 0.000208 0.006783 0.004296 0.001902
0.709600 -0.005341 0.000585 0.000209 0.006792 0.004300 0.001903
0.712300 -0.005349 0.000586 0.000210 0.006801 0.004304 0.001905
0.715100 -0.005358 0.000588 0.000211 0.006810 0.004309 0.001906
0.717800 -0.005366 0.000590 0.000212 0.006819 0.004313 0.001908
0.720600 -0.005374 0.000591 0.000213 0.006828 0.004317 0.001909
0.723300 -0.005382 0.000593 0.000214 0.006836 0.004322 0.001911
0.726000 -0.005390 0.000595 0.000214 0.006845 0.004326 0.001912
0.728800 -0.005398 0.000596 0.000215 0.006854 0.004330 0.001914
0.731500 -0.005406 0.000598 0.000216 0.006862 0.004335 0.001915
0.734300 -0.005414 0.000599 0.000217 0.006871 0.004339 0.001916
0.737000 -0.005422 0.000601 0.000218 0.006879 0.004343 0.001918
0.739700 -0.005430 0.000603 0.000219 0.006888 0.004348 0.001919
0.742500 -0.005438 0.000604 0.000220 0.006896 0.004352 0.001921
0.745200 -0.005445 0.000606 0.000220 0.006904 0.004356 0.001922
0.747900 -0.005453 0.000607 0.000221 0.006913 0.004360 0.001924
0.750700 -0.005461 0.000609 0.000222 0.006921 0.004365 0.001925
0.753400 -0.005468 0.000611 0.000223 0.006929 0.004369 0.001927
0.756200 -0.005476 0.000612 0.000224 0.006938 0.004373 0.001928
0.758900 -0.005484 0.000614 0.000225 0.006946 0.004377 0.001930
0.761600 -0.005491 0.000615 0.000226 0.006954 0.004382 0.001931
0.764400 -0.005499 0.000617 0.000226 0.006962 0.004386 0.001933
0.767100 -0.005506 0.000618 0.000227 0.006970 0.004390 0.001934
0.769900 -0.005514 0.000620 0.000228 0.006979 0.004394 0.001936
0.772600 -0.005521 0.000622 0.000229 0.006987 0.004398 0.001937
0.775300 -0.005528 0.000623 0.000230 0.006994 0.004403 0.001939
0.778100 -0.005536 0.000625 0.000231 0.007003 0.004407 0.001940
0.780800 -0.005543 0.000626 0.000232 0.007010 0.004411 0.001942
0.783600 -0.005550 0.000628 0.000232 0.007018 0.004415 0.001943
0.786300 -0.005557 0.000629 0.000233 0.007026 0.004419 0.001945
0.789000 -0.005564 0.000631 0.000234 0.007034 0.004423 0.001946
0.791800 -0.005572 0.000632 0.000235 0.007042 0.004428 0.001948
0.794500 -0.005579 0.000634 0.000236 0.007049 0.004432 0.001949
0.797300 -0.005586 0.000635 0.000237 0.007057 0.004436 0.001951
0.800000 -0.005593 0.000637 0.000238 0.007065 0.004440 0.001952
0.802700 -0.005600 0.000638 0.000238 0.007072 0.004444 0.001954
0.805500 -0.005607 0.000640 0.000239 0.007080 0.004448 0.001955
0.808200 -0.005614 0.000641 0.000240 0.007088 0.004452 0.001957
0.811000 -0.005621 0.000643 0.000241 0.007095 0.004456 0.001959
0.813700 -0.005628 0.000644 0.000242 0.007103 0.004460 0.001960
0.816400 -0.005634 0.000646 0.000243 0.007110 0.004464 0.001962
0.819200 -0.005641 0.000647 0.000244 0.007118 0.004468 0.001963
0.821900 -0.005648 0.000649 0.000244 0.007125 0.004472 0.001965
0.824700 -0.005655 0.000650 0.000245 0.007132 0.004477 0.001966
0.827400 -0.005662 0.000652 0.000246 0.007140 0.004481 0.001968
0.830100 -0.005668 0.000653 0.000247 0.007147 0.004484 0.001969
0.832900 -0.005675 0.000654 0.000248 0.007154 0.004489 0.001971
0.835600 -0.005682 0.000656 0.000249 0.007161 0.004493 0.001973
0.838400 -0.005688 0.000657 0.000250 0.007169 0.004497 0.001974
0.841100 -0.005695 0.000659 0.000250 0.007176 0.004501 0.001976
0.843800 -0.005701 0.000660 0.000251 0.007183 0.004504 0.001977
0.846600 -0.005708 0.000662 0.000252 0.007190 0.004509 0.001979
0.849300 -0.005715 0.000663 0.000253 0.007197 0.004512 0.001980
0.852100 -0.005721 0.000665 0.000254 0.007204 0.004517 0.001982
0.854800 -0.005728 0.000666 0.000255 0.007211 0.004520 0.001984
0.857500 -0.005734 0.000667 0.000256 0.007218 0.004524 0.001985
0.860300 -0.005741 0.000669 0.000256 0.007225 0.004528 0.001987
0.863000 -0.005747 0.000670 0.000257 0.007232 0.004532 0.001988
0.865800 -0.005753 0.000672 0.000258 0.007238 0.004536 0.001990
0.868500 -0.005760 0.000673 0.000259 0.007245 0.004540 0.001992
0.871200 -0.005766 0.000674 0.000260 0.007252 0.004544 0.001993
0.874000 -0.005772 0.000676 0.000261 0.007259 0.004548 0.001995
0.876700 -0.005778 0.000677 0.000262 0.007265 0.004552 0.001996
0.879500 -0.005785 0.000679 0.000262 0.007272 0.004556 0.001998
0.882200 -0.005791 0.000680 0.000263 0.007279 0.004560 0.002000
0.884900 -0.005797 0.000681 0.000264 0.007285 0.004563 0.002001
0.887700 -0.005803 0.000683 0.000265 0.007292 0.004567 0.002003
0.893200 -0.005816 0.000685 0.000267 0.007305 0.004575 0.002006
0.895900 -0.005822 0.000687 0.000268 0.007311 0.004579 0.002008
0.898600 -0.005828 0.000688 0.000268 0.007318 0.004583 0.002010
0.901400 -0.005834 0.000689 0.000269 0.007324 0.004587 0.002011
0.904100 -0.005840 0.000691 0.000270 0.007331 0.004590 0.002013
0.906900 -0.005846 0.000692 0.000271 0.007337 0.004594 0.002014
0.909600 -0.005852 0.000693 0.000272 0.007343 0.004598 0.002016
0.912300 -0.005858 0.000695 0.000273 0.007350 0.004602 0.002018
0.915100 -0.005864 0.000696 0.000274 0.007356 0.004606 0.002019
0.917800 -0.005870 0.000697 0.000274 0.007362 0.004609 0.002021
0.920600 -0.005876 0.000699 0.000275 0.007368 0.004613 0.002023
0.923300 -0.005882 0.000700 0.000276 0.007374 0.004617 0.002024
0.926000 -0.005888 0.000701 0.000277 0.007381 0.004621 0.002026
0.928800 -0.005894 0.000703 0.000278 0.007387 0.004624 0.002028
