# time (yr) north(m) east(m) up(m) northsigma(m) eastsigma(m) upsigma(m)
0.000000 0.000000 0.000000 0.000000 0.002043 0.000711 0.001287
0.002700 -0.000185 0.000044 0.000027 0.002045 0.000713 0.001287
0.005500 -0.000374 0.000088 0.000054 0.002050 0.000720 0.001287
0.008200 -0.000554 0.000129 0.000080 0.002058 0.000728 0.001288
0.011000 -0.000739 0.000171 0.000107 0.002068 0.000740 0.001288
0.013700 -0.000914 0.000211 0.000132 0.002080 0.000752 0.001289
0.016400 -0.001087 0.000250 0.000157 0.002094 0.000765 0.001290
0.019200 -0.001264 0.000289 0.000183 0.002109 0.000780 0.001291
0.021900 -0.001432 0.000326 0.000208 0.002126 0.000795 0.001292
0.024700 -0.001603 0.000364 0.000233 0.002144 0.000811 0.001293
0.027400 -0.001767 0.000400 0.000258 0.002162 0.000827 0.001295
0.030100 -0.001927 0.000435 0.000282 0.002180 0.000843 0.001297
0.032900 -0.002092 0.000471 0.000307 0.002201 0.000859 0.001298
0.035600 -0.002248 0.000504 0.000331 0.002221 0.000875 0.001300
0.038400 -0.002407 0.000539 0.000356 0.002242 0.000892 0.001302
0.041100 -0.002559 0.000571 0.000380 0.002262 0.000908 0.001304
0.043800 -0.002708 0.000603 0.000404 0.002283 0.000924 0.001306
0.046600 -0.002861 0.000636 0.000429 0.002305 0.000940 0.001309
0.049300 -0.003005 0.000666 0.000453 0.002326 0.000956 0.001311
0.052100 -0.003154 0.000698 0.000477 0.002348 0.000972 0.001314
0.054800 -0.003294 0.000727 0.000501 0.002369 0.000987 0.001316
0.057500 -0.003433 0.000757 0.000524 0.002390 0.001002 0.001319
0.060300 -0.003575 0.000786 0.000548 0.002411 0.001018 0.001322
0.063000 -0.003709 0.000814 0.000572 0.002432 0.001032 0.001324
0.065800 -0.003847 0.000843 0.000596 0.002453 0.001047 0.001327
0.068500 -0.003977 0.000870 0.000619 0.002474 0.001061 0.001330
0.071200 -0.004106 0.000897 0.000642 0.002494 0.001075 0.001333
0.074000 -0.004238 0.000925 0.000666 0.002514 0.001089 0.001336
0.076700 -0.004363 0.000950 0.000688 0.002533 0.001102 0.001340
0.079500 -0.004491 0.000977 0.000712 0.002553 0.001115 0.001343
0.082200 -0.004612 0.001002 0.000735 0.002572 0.001128 0.001346
0.084900 -0.004732 0.001027 0.000757 0.002591 0.001140 0.001350
0.087700 -0.004855 0.001052 0.000781 0.002610 0.001153 0.001353
0.090400 -0.004971 0.001076 0.000803 0.002627 0.001164 0.001357
0.093200 -0.005090 0.001100 0.000826 0.002645 0.001176 0.001360
0.095900 -0.005204 0.001123 0.000849 0.002663 0.001187 0.001364
0.098600 -0.005315 0.001146 0.000871 0.002679 0.001197 0.001367
0.101400 -0.005429 0.001169 0.000894 0.002696 0.001208 0.001371
0.104100 -0.005538 0.001191 0.000916 0.002712 0.001218 0.001375
0.106900 -0.005649 0.001214 0.000938 0.002729 0.001228 0.001379
0.109600 -0.005754 0.001235 0.000960 0.002744 0.001237 0.001382
0.112300 -0.005859 0.001256 0.000982 0.002759 0.001246 0.001386
0.115100 -0.005965 0.001278 0.001004 0.002774 0.001255 0.001390
0.117800 -0.006066 0.001298 0.001026 0.002788 0.001263 0.001394
0.120600 -0.006170 0.001319 0.001048 0.002802 0.001272 0.001398
0.123300 -0.006269 0.001339 0.001070 0.002816 0.001279 0.001401
0.126000 -0.006366 0.001359 0.001091 0.002829 0.001287 0.001405
0.128800 -0.006466 0.001379 0.001113 0.002842 0.001294 0.001409
0.131500 -0.006560 0.001398 0.001134 0.002854 0.001301 0.001413
0.134300 -0.006657 0.001417 0.001156 0.002867 0.001308 0.001417
0.137000 -0.006750 0.001436 0.001177 0.002879 0.001314 0.001421
0.139700 -0.006841 0.001454 0.001198 0.002890 0.001320 0.001425
0.142500 -0.006934 0.001472 0.001220 0.002902 0.001326 0.001429
0.145200 -0.007023 0.001490 0.001241 0.002912 0.001331 0.001433
0.147900 -0.007111 0.001507 0.001261 0.002923 0.001337 0.001437
0.150700 -0.007200 0.001525 0.001283 0.002933 0.001342 0.001441
0.153400 -0.007286 0.001542 0.001303 0.002943 0.001346 0.001445
0.156200 -0.007373 0.001559 0.001325 0.002953 0.001351 0.001449
0.158900 -0.007457 0.001576 0.001345 0.002962 0.001355 0.001453
0.161600 -0.007539 0.001592 0.001365 0.002971 0.001359 0.001457
0.164400 -0.007623 0.001609 0.001386 0.002980 0.001363 0.001461
0.167100 -0.007703 0.001624 0.001406 0.002988 0.001366 0.001465
0.169900 -0.007786 0.001641 0.001427 0.002997 0.001370 0.001469
0.172600 -0.007864 0.001656 0.001447 0.003005 0.001373 0.001473
0.175300 -0.007941 0.001671 0.001467 0.003012 0.001376 0.001477
0.178100 -0.008021 0.001687 0.001488 0.003020 0.001378 0.001481
0.180800 -0.008096 0.001701 0.001507 0.003027 0.001381 0.001485
0.183600 -0.008173 0.001716 0.001528 0.003034 0.001383 0.001489
0.186300 -0.008247 0.001731 0.001547 0.003041 0.001385 0.001492
0.189000 -0.008320 0.001745 0.001567 0.003047 0.001387 0.001496
0.191800 -0.008395 0.001759 0.001587 0.003053 0.001389 0.001500
0.194500 -0.008466 0.001773 0.001606 0.003059 0.001390 0.001504
0.197300 -0.008539 0.001787 0.001626 0.003065 0.001392 0.001508
0.200000 -0.008609 0.001801 0.001645 0.003070 0.001393 0.001512
0.202700 -0.008677 0.001814 0.001665 0.003076 0.001394 0.001515
0.205500 -0.008748 0.001827 0.001684 0.003081 0.001395 0.001519
0.208200 -0.008815 0.001840 0.001703 0.003086 0.001395 0.001523
0.211000 -0.008884 0.001854 0.001723 0.003091 0.001396 0.001527
0.213700 -0.008950 0.001866 0.001742 0.003095 0.001396 0.001530
0.216400 -0.009015 0.001879 0.001760 0.003099 0.001396 0.001534
0.219200 -0.009081 0.001891 0.001780 0.003103 0.001396 0.001538
0.221900 -0.009145 0.001903 0.001798 0.003107 0.001396 0.001541
0.224700 -0.009210 0.001916 0.001817 0.003111 0.001396 0.001545
0.227400 -0.009272 0.001928 0.001836 0.003115 0.001396 0.001549
0.230100 -0.009334 0.001939 0.001854 0.003118 0.001396 0.001552
0.232900 -0.009397 0.001951 0.001873 0.003121 0.001395 0.001556
0.235600 -0.009457 0.001963 0.001891 0.003124 0.001394 0.001559
0.238400 -0.009519 0.001974 0.001910 0.003127 0.001394 0.001563
0.241100 -0.009578 0.001985 0.001928 0.003130 0.001393 0.001566
0.243800 -0.009636 0.001996 0.001946 0.003133 0.001392 0.001570
0.246600 -0.009696 0.002007 0.001964 0.003135 0.001391 0.001573
0.249300 -0.009753 0.002018 0.001982 0.003137 0.001389 0.001577
0.252100 -0.009812 0.002029 0.002000 0.003140 0.001388 0.001580
0.254800 -0.009868 0.002039 0.002018 0.003142 0.001387 0.001584
0.257500 -0.009923 0.002050 0.002035 0.003144 0.001385 0.001587
0.260300 -0.009980 0.002060 0.002053 0.003145 0.001384 0.001590
0.263000 -0.010035 0.002070 0.002070 0.003147 0.001382 0.001594
0.265800 -0.010090 0.002081 0.002088 0.003149 0.001380 0.001597
0.268500 -0.010144 0.002091 0.002106 0.003150 0.001379 0.001600
0.271200 -0.010196 0.002100 0.002123 0.003151 0.001377 0.001603
0.274000 -0.010250 0.002110 0.002140 0.003152 0.001375 0.001607
0.276700 -0.010302 0.002120 0.002157 0.003153 0.001373 0.001610
0.279500 -0.010355 0.002129 0.002175 0.003154 0.001371 0.001613
0.282200 -0.010406 0.002139 0.002191 0.003155 0.001369 0.001616
0.284900 -0.010456 0.002148 0.002208 0.003156 0.001367 0.001619
0.287700 -0.010508 0.002157 0.002225 0.003157 0.001364 0.001622
0.290400 -0.010557 0.002166 0.002242 0.003157 0.001362 0.001625
0.293200 -0.010608 0.002175 0.002259 0.003157 0.001360 0.001629
0.295900 -0.010656 0.002184 0.002275 0.003158 0.001357 0.001631
0.298600 -0.010704 0.002193 0.002292 0.003158 0.001355 0.001634
0.301400 -0.010753 0.002202 0.002308 0.003158 0.001352 0.001638
0.304100 -0.010800 0.002210 0.002324 0.003158 0.001350 0.001640
0.306900 -0.010849 0.002219 0.002341 0.003158 0.001347 0.001643
0.309600 -0.010895 0.002227 0.002357 0.003158 0.001345 0.001646
0.312300 -0.010941 0.002235 0.002373 0.003158 0.001342 0.001649
0.315100 -0.010988 0.002244 0.002389 0.003158 0.001339 0.001652
0.317800 -0.011033 0.002252 0.002405 0.003157 0.001336 0.001655
0.320600 -0.011079 0.002260 0.002421 0.003157 0.001334 0.001658
0.323300 -0.011123 0.002268 0.002437 0.003156 0.001331 0.001661
0.326000 -0.011167 0.002275 0.002452 0.003156 0.001328 0.001663
0.328800 -0.011212 0.002283 0.002468 0.003155 0.001325 0.001666
0.331500 -0.011255 0.002291 0.002484 0.003155 0.001322 0.001669
0.334300 -0.011299 0.002299 0.002500 0.003154 0.001319 0.001672
0.337000 -0.011342 0.002306 0.002515 0.003153 0.001317 0.001674
0.339700 -0.011384 0.002313 0.002530 0.003152 0.001314 0.001677
0.342500 -0.011427 0.002321 0.002545 0.003151 0.001311 0.001680
0.345200 -0.011468 0.002328 0.002560 0.003150 0.001308 0.001682
0.347900 -0.011509 0.002335 0.002575 0.003149 0.001305 0.001685
0.350700 -0.011551 0.002342 0.002590 0.003148 0.001302 0.001687
0.353400 -0.011592 0.002349 0.002605 0.003147 0.001299 0.001690
0.356200 -0.011633 0.002356 0.002620 0.003146 0.001296 0.001693
0.358900 -0.011673 0.002363 0.002635 0.003144 0.001293 0.001695
0.361600 -0.011712 0.002370 0.002649 0.003143 0.001290 0.001698
0.364400 -0.011752 0.002377 0.002664 0.003142 0.001286 0.001700
0.367100 -0.011791 0.002383 0.002678 0.003140 0.001283 0.001703
0.369900 -0.011831 0.002390 0.002693 0.003139 0.001280 0.001705
0.372600 -0.011869 0.002397 0.002707 0.003137 0.001277 0.001708
0.375300 -0.011907 0.002403 0.002721 0.003136 0.001274 0.001710
0.378100 -0.011946 0.002410 0.002736 0.003134 0.001271 0.001712
0.380800 -0.011983 0.002416 0.002750 0.003133 0.001268 0.001715
0.383600 -0.012022 0.002422 0.002764 0.003131 0.001265 0.001717
0.386300 -0.012058 0.002429 0.002778 0.003129 0.001262 0.001720
0.389000 -0.012095 0.002435 0.002792 0.003128 0.001259 0.001722
0.391800 -0.012132 0.002441 0.002806 0.003126 0.001256 0.001724
0.394500 -0.012168 0.002447 0.002819 0.003124 0.001253 0.001726
0.397300 -0.012205 0.002453 0.002833 0.003122 0.001249 0.001729
0.400000 -0.012240 0.002459 0.002847 0.003120 0.001246 0.001731
0.402700 -0.012276 0.002465 0.002860 0.003118 0.001243 0.001733
0.405500 -0.012312 0.002470 0.002874 0.003117 0.001240 0.001736
0.408200 -0.012346 0.002476 0.002887 0.003115 0.001237 0.001738
0.411000 -0.012382 0.002482 0.002900 0.003113 0.001234 0.001740
0.413700 -0.012416 0.002487 0.002913 0.003111 0.001231 0.001742
0.416400 -0.012450 0.002493 0.002926 0.003109 0.001228 0.001744
0.419200 -0.012485 0.002499 0.002939 0.003107 0.001225 0.001747
0.421900 -0.012519 0.002504 0.002952 0.003105 0.001222 0.001749
0.424700 -0.012553 0.002510 0.002965 0.003102 0.001219 0.001751
0.427400 -0.012586 0.002515 0.002978 0.003100 0.001216 0.001753
0.430100 -0.012619 0.002520 0.002990 0.003098 0.001213 0.001755
0.432900 -0.012653 0.002526 0.003003 0.003096 0.001210 0.001757
0.435600 -0.012685 0.002531 0.003016 0.003094 0.001207 0.001759
0.438400 -0.012718 0.002536 0.003028 0.003092 0.001204 0.001761
0.441100 -0.012750 0.002541 0.003041 0.003090 0.001202 0.001763
0.443800 -0.012782 0.002546 0.003053 0.003087 0.001199 0.001765
0.446600 -0.012815 0.002551 0.003065 0.003085 0.001196 0.001767
0.449300 -0.012846 0.002556 0.003077 0.003083 0.001193 0.001769
0.452100 -0.012878 0.002561 0.003090 0.003081 0.001190 0.001772
0.454800 -0.012909 0.002566 0.003101 0.003078 0.001187 0.001773
0.457500 -0.012940 0.002571 0.003113 0.003076 0.001185 0.001775
0.460300 -0.012972 0.002576 0.003125 0.003074 0.001182 0.001777
0.463000 -0.013002 0.002580 0.003137 0.003071 0.001179 0.001779
0.465800 -0.013034 0.002585 0.003149 0.003069 0.001176 0.001781
0.468500 -0.013064 0.002590 0.003160 0.003067 0.001174 0.001783
0.471200 -0.013093 0.002594 0.003172 0.003064 0.001171 0.001785
0.474000 -0.013124 0.002599 0.003183 0.003062 0.001168 0.001787
0.476700 -0.013154 0.002603 0.003195 0.003060 0.001166 0.001789
0.479500 -0.013184 0.002608 0.003206 0.003057 0.001163 0.001791
0.482200 -0.013213 0.002612 0.003217 0.003055 0.001160 0.001793
0.484900 -0.013242 0.002617 0.003228 0.003053 0.001158 0.001795
0.487700 -0.013272 0.002621 0.003240 0.003050 0.001155 0.001796
0.490400 -0.013301 0.002625 0.003251 0.003048 0.001153 0.001798
0.493200 -0.013330 0.002630 0.003262 0.003045 0.001150 0.001800
0.495900 -0.013359 0.002634 0.003272 0.003043 0.001148 0.001802
0.498600 -0.013387 0.002638 0.003283 0.003041 0.001145 0.001804
0.501400 -0.013416 0.002643 0.003294 0.003038 0.001143 0.001806
0.504100 -0.013444 0.002647 0.003305 0.003036 0.001140 0.001807
0.506900 -0.013472 0.002651 0.003315 0.003033 0.001138 0.001809
0.509600 -0.013500 0.002655 0.003326 0.003031 0.001136 0.001811
0.512300 -0.013527 0.002659 0.003336 0.003028 0.001133 0.001813
0.517800 -0.013583 0.002667 0.003357 0.003024 0.001129 0.001816
0.520600 -0.013611 0.002671 0.003367 0.003021 0.001126 0.001818
0.523300 -0.013638 0.002675 0.003377 0.003019 0.001124 0.001820
0.526000 -0.013664 0.002679 0.003387 0.003016 0.001122 0.001821
0.528800 -0.013692 0.002682 0.003397 0.003014 0.001120 0.001823
0.531500 -0.013719 0.002686 0.003407 0.003011 0.001118 0.001825
0.534300 -0.013746 0.002690 0.003417 0.003009 0.001116 0.001827
0.537000 -0.013772 0.002694 0.003427 0.003006 0.001113 0.001828
0.539700 -0.013798 0.002697 0.003437 0.003004 0.001111 0.001830
0.542500 -0.013825 0.002701 0.003446 0.003002 0.001109 0.001832
0.545200 -0.013851 0.002705 0.003456 0.002999 0.001107 0.001833
0.547900 -0.013876 0.002708 0.003465 0.002997 0.001105 0.001835
0.550700 -0.013903 0.002712 0.003475 0.002994 0.001103 0.001837
0.553400 -0.013928 0.002715 0.003484 0.002992 0.001101 0.001838
0.556200 -0.013955 0.002719 0.003494 0.002989 0.001099 0.001840
0.558900 -0.013980 0.002722 0.003503 0.002987 0.001098 0.001842
0.561600 -0.014005 0.002726 0.003512 0.002985 0.001096 0.001843
0.564400 -0.014031 0.002729 0.003521 0.002982 0.001094 0.001845
0.567100 -0.014056 0.002733 0.003530 0.002980 0.001092 0.001847
0.569900 -0.014081 0.002736 0.003539 0.002977 0.001090 0.001848
0.572600 -0.014106 0.002740 0.003548 0.002975 0.001089 0.001850
0.575300 -0.014130 0.002743 0.003556 0.002973 0.001087 0.001851
0.578100 -0.014156 0.002746 0.003565 0.002970 0.001085 0.001853
0.580800 -0.014180 0.002749 0.003574 0.002968 0.001083 0.001855
0.583600 -0.014205 0.002753 0.003583 0.002965 0.001082 0.001856
0.586300 -0.014229 0.002756 0.003591 0.002963 0.001080 0.001858
0.589000 -0.014253 0.002759 0.003599 0.002961 0.001079 0.001859
0.591800 -0.014278 0.002762 0.003608 0.002958 0.001077 0.001861
0.594500 -0.014302 0.002765 0.003616 0.002956 0.001075 0.001863
0.597300 -0.014326 0.002768 0.003625 0.002954 0.001074 0.001864
0.600000 -0.014350 0.002772 0.003633 0.002951 0.001072 0.001866
0.602700 -0.014373 0.002775 0.003641 0.002949 0.001071 0.001867
0.605500 -0.014398 0.002778 0.003649 0.002947 0.001069 0.001869
0.608200 -0.014421 0.002781 0.003657 0.002944 0.001068 0.001871
0.611000 -0.014445 0.002784 0.003665 0.002942 0.001067 0.001872
0.613700 -0.014468 0.002787 0.003673 0.002940 0.001065 0.001874
0.616400 -0.014491 0.002789 0.003680 0.002937 0.001064 0.001875
0.619200 -0.014515 0.002792 0.003688 0.002935 0.001063 0.001877
0.621900 -0.014538 0.002795 0.003696 0.002933 0.001061 0.001878
0.624700 -0.014561 0.002798 0.003704 0.002930 0.001060 0.001880
0.627400 -0.014584 0.002801 0.003711 0.002928 0.001059 0.001881
0.630100 -0.014607 0.002804 0.003718 0.002926 0.001058 0.001883
0.632900 -0.014630 0.002807 0.003726 0.002924 0.001056 0.001884
0.635600 -0.014652 0.002809 0.003733 0.002921 0.001055 0.001886
0.638400 -0.014675 0.002812 0.003741 0.002919 0.001054 0.001888
0.641100 -0.014698 0.002815 0.003748 0.002917 0.001053 0.001889
0.643800 -0.014720 0.002818 0.003755 0.002915 0.001052 0.001891
0.646600 -0.014743 0.002820 0.003762 0.002912 0.001051 0.001892
0.649300 -0.014765 0.002823 0.003769 0.002910 0.001050 0.001894
0.652100 -0.014787 0.002826 0.003776 0.002908 0.001049 0.001895
0.654800 -0.014809 0.002828 0.003783 0.002906 0.001048 0.001897
0.657500 -0.014831 0.002831 0.003790 0.002904 0.001047 0.001898
0.660300 -0.014853 0.002833 0.003797 0.002901 0.001046 0.001900
0.663000 -0.014875 0.002836 0.003803 0.002899 0.001045 0.001901
0.665800 -0.014897 0.002839 0.003810 0.002897 0.001044 0.001903
0.668500 -0.014919 0.002841 0.003816 0.002895 0.001043 0.001904
0.671200 -0.014940 0.002844 0.003823 0.002893 0.001042 0.001906
0.674000 -0.014962 0.002846 0.003830 0.002891 0.001041 0.001907
0.676700 -0.014983 0.002848 0.003836 0.002889 0.001040 0.001909
0.679500 -0.015005 0.002851 0.003842 0.002886 0.001040 0.001910
0.682200 -0.015027 0.002853 0.003848 0.002884 0.001039 0.001912
0.684900 -0.015048 0.002856 0.003855 0.002882 0.001038 0.001913
0.687700 -0.015069 0.002858 0.003861 0.002880 0.001037 0.001915
0.690400 -0.015090 0.002861 0.003867 0.002878 0.001037 0.001916
0.693200 -0.015112 0.002863 0.003873 0.002876 0.001036 0.001918
0.695900 -0.015133 0.002865 0.003879 0.002874 0.001035 0.001919
0.698600 -0.015153 0.002868 0.003885 0.002872 0.001035 0.001921
0.701400 -0.015175 0.002870 0.003891 0.002870 0.001034 0.001922
0.704100 -0.015195 0.002872 0.003896 0.002868 0.001033 0.001924
0.706900 -0.015216 0.002874 0.003902 0.002866 0.001033 0.001926
0.709600 -0.015237 0.002877 0.003908 0.002864 0.001032 0.001927
0.712300 -0.015257 0.002879 0.003913 0.002862 0.001032 0.001929
0.715100 -0.015278 0.002881 0.003919 0.002860 0.001031 0.001930
0.717800 -0.015298 0.002883 0.003925 0.002858 0.001031 0.001932
0.720600 -0.015319 0.002886 0.003930 0.002856 0.001030 0.001933
0.723300 -0.015340 0.002888 0.003935 0.002854 0.001030 0.001935
0.726000 -0.015360 0.002890 0.003941 0.002852 0.001029 0.001936
0.728800 -0.015380 0.002892 0.003946 0.002850 0.001029 0.001938
0.731500 -0.015400 0.002894 0.003951 0.002848 0.001029 0.001939
0.734300 -0.015421 0.002896 0.003956 0.002846 0.001028 0.001941
0.737000 -0.015441 0.002898 0.003961 0.002845 0.001028 0.001942
0.739700 -0.015461 0.002900 0.003966 0.002843 0.001027 0.001944
0.742500 -0.015481 0.002902 0.003972 0.002841 0.001027 0.001945
0.745200 -0.015501 0.002904 0.003976 0.002839 0.001027 0.001947
0.747900 -0.015520 0.002906 0.003981 0.002837 0.001026 0.001948
0.750700 -0.015541 0.002908 0.003986 0.002835 0.001026 0.001950
0.753400 -0.015560 0.002910 0.003991 0.002833 0.001026 0.001952
0.756200 -0.015580 0.002912 0.003996 0.002832 0.001026 0.001953
0.758900 -0.015600 0.002914 0.004000 0.002830 0.001025 0.001955
0.761600 -0.015619 0.002916 0.004005 0.002828 0.001025 0.001956
0.764400 -0.015639 0.002918 0.004009 0.002826 0.001025 0.001958
0.767100 -0.015658 0.002920 0.004014 0.002824 0.001025 0.001959
0.769900 -0.015678 0.002922 0.004018 0.002823 0.001025 0.001961
0.772600 -0.015697 0.002924 0.004023 0.002821 0.001025 0.001963
0.775300 -0.015716 0.002926 0.004027 0.002819 0.001024 0.001964
0.778100 -0.015736 0.002928 0.004031 0.002817 0.001024 0.001966
0.780800 -0.015755 0.002929 0.004035 0.002816 0.001024 0.001967
0.783600 -0.015775 0.002931 0.004040 0.002814 0.001024 0.001969
0.786300 -0.015794 0.002933 0.004044 0.002812 0.001024 0.001970
0.789000 -0.015812 0.002935 0.004048 0.002811 0.001024 0.001972
0.791800 -0.015832 0.002937 0.004052 0.002809 0.001024 0.001974
0.794500 -0.015851 0.002938 0.004056 0.002807 0.001024 0.001975
0.797300 -0.015870 0.002940 0.004060 0.002805 0.001024 0.001977
0.800000 -0.015889 0.002942 0.004064 0.002804 0.001024 0.001979
0.802700 -0.015907 0.002944 0.004067 0.002802 0.001024 0.001980
0.805500 -0.015927 0.002945 0.004071 0.002801 0.001024 0.001982
0.808200 -0.015945 0.002947 0.004075 0.002799 0.001024 0.001983
0.811000 -0.015964 0.002949 0.004078 0.002797 0.001024 0.001985
0.813700 -0.015983 0.002950 0.004082 0.002796 0.001024 0.001987
0.816400 -0.016001 0.002952 0.004086 0.002794 0.001024 0.001988
0.819200 -0.016020 0.002954 0.004089 0.002793 0.001024 0.001990
0.821900 -0.016038 0.002955 0.004092 0.002791 0.001025 0.001992
0.824700 -0.016057 0.002957 0.004096 0.002789 0.001025 0.001993
0.827400 -0.016076 0.002959 0.004099 0.002788 0.001025 0.001995
0.830100 -0.016094 0.002960 0.004103 0.002786 0.001025 0.001997
0.832900 -0.016113 0.002962 0.004106 0.002785 0.001025 0.001998
0.835600 -0.016131 0.002963 0.004109 0.002783 0.001025 0.002000
0.838400 -0.016149 0.002965 0.004112 0.002782 0.001026 0.002002
0.841100 -0.016167 0.002967 0.004115 0.002780 0.001026 0.002003
0.843800 -0.016185 0.002968 0.004118 0.002779 0.001026 0.002005
0.846600 -0.016204 0.002970 0.004121 0.002777 0.001026 0.002007
0.849300 -0.016222 0.002971 0.004124 0.002776 0.001027 0.002009
0.852100 -0.016240 0.002973 0.004127 0.002774 0.001027 0.002010
