# time (yr) north(m) east(m) up(m) northsigma(m) eastsigma(m) upsigma(m)
0.000000 0.000000 0.000000 0.000000 0.000886 0.000777 0.000658
0.002700 0.000003 -0.000078 0.000013 0.000886 0.000778 0.000658
0.005500 0.000007 -0.000157 0.000027 0.000886 0.000779 0.000658
0.008200 0.000010 -0.000232 0.000039 0.000886 0.000780 0.000659
0.011000 0.000014 -0.000308 0.000053 0.000887 0.000782 0.000660
0.013700 0.000017 -0.000380 0.000066 0.000887 0.000784 0.000661
0.016400 0.000020 -0.000450 0.000079 0.000888 0.000787 0.000662
0.019200 0.000024 -0.000522 0.000092 0.000889 0.000790 0.000664
0.021900 0.000027 -0.000589 0.000105 0.000889 0.000793 0.000666
0.024700 0.000031 -0.000658 0.000119 0.000890 0.000796 0.000668
0.027400 0.000034 -0.000724 0.000132 0.000891 0.000800 0.000670
0.030100 0.000037 -0.000788 0.000145 0.000893 0.000803 0.000672
0.032900 0.000041 -0.000854 0.000158 0.000894 0.000807 0.000675
0.035600 0.000044 -0.000916 0.000172 0.000895 0.000810 0.000678
0.038400 0.000048 -0.000980 0.000185 0.000896 0.000814 0.000681
0.041100 0.000051 -0.001040 0.000199 0.000898 0.000817 0.000683
0.043800 0.000054 -0.001100 0.000212 0.000899 0.000821 0.000686
0.046600 0.000057 -0.001161 0.000226 0.000901 0.000824 0.000690
0.049300 0.000061 -0.001218 0.000239 0.000903 0.000828 0.000693
0.052100 0.000064 -0.001277 0.000253 0.000904 0.000831 0.000696
0.054800 0.000067 -0.001333 0.000266 0.000906 0.000834 0.000699
0.057500 0.000070 -0.001389 0.000280 0.000908 0.000838 0.000703
0.060300 0.000074 -0.001445 0.000294 0.000910 0.000841 0.000706
0.063000 0.000077 -0.001499 0.000307 0.000912 0.000844 0.000710
0.065800 0.000080 -0.001554 0.000321 0.000914 0.000847 0.000713
0.068500 0.000083 -0.001607 0.000335 0.000916 0.000850 0.000717
0.071200 0.000086 -0.001658 0.000349 0.000918 0.000853 0.000720
0.074000 0.000089 -0.001711 0.000363 0.000920 0.000856 0.000724
0.076700 0.000093 -0.001762 0.000376 0.000922 0.000859 0.000727
0.079500 0.000096 -0.001813 0.000391 0.000924 0.000861 0.000731
0.082200 0.000099 -0.001862 0.000404 0.000926 0.000864 0.000734
0.084900 0.000102 -0.001911 0.000418 0.000929 0.000866 0.000737
0.087700 0.000105 -0.001961 0.000432 0.000931 0.000869 0.000741
0.090400 0.000108 -0.002008 0.000446 0.000933 0.000871 0.000744
0.093200 0.000111 -0.002057 0.000460 0.000936 0.000873 0.000748
0.095900 0.000114 -0.002103 0.000474 0.000938 0.000875 0.000751
0.098600 0.000117 -0.002149 0.000488 0.000940 0.000877 0.000754
0.101400 0.000120 -0.002196 0.000502 0.000943 0.000880 0.000757
0.104100 0.000123 -0.002241 0.000515 0.000945 0.000881 0.000760
0.106900 0.000126 -0.002287 0.000530 0.000948 0.000883 0.000764
0.109600 0.000129 -0.002331 0.000543 0.000950 0.000885 0.000767
0.112300 0.000132 -0.002374 0.000557 0.000953 0.000887 0.000770
0.115100 0.000134 -0.002418 0.000571 0.000956 0.000888 0.000773
0.117800 0.000137 -0.002461 0.000585 0.000958 0.000890 0.000776
0.120600 0.000140 -0.002504 0.000599 0.000961 0.000891 0.000778
0.123300 0.000143 -0.002546 0.000612 0.000963 0.000893 0.000781
0.126000 0.000146 -0.002587 0.000626 0.000966 0.000894 0.000784
0.128800 0.000149 -0.002629 0.000640 0.000969 0.000896 0.000787
0.131500 0.000151 -0.002669 0.000653 0.000971 0.000897 0.000789
0.134300 0.000154 -0.002711 0.000667 0.000974 0.000898 0.000792
0.137000 0.000157 -0.002750 0.000680 0.000977 0.000899 0.000795
0.139700 0.000160 -0.002789 0.000694 0.000979 0.000900 0.000797
0.142500 0.000162 -0.002830 0.000707 0.000982 0.000901 0.000799
0.145200 0.000165 -0.002868 0.000720 0.000985 0.000902 0.000802
0.147900 0.000168 -0.002906 0.000734 0.000987 0.000903 0.000804
0.150700 0.000171 -0.002945 0.000747 0.000990 0.000904 0.000806
0.153400 0.000173 -0.002982 0.000760 0.000993 0.000905 0.000809
0.156200 0.000176 -0.003020 0.000774 0.000996 0.000905 0.000811
0.158900 0.000179 -0.003057 0.000786 0.000998 0.000906 0.000813
0.161600 0.000181 -0.003093 0.000799 0.001001 0.000907 0.000815
0.164400 0.000184 -0.003131 0.000812 0.001004 0.000907 0.000817
0.167100 0.000186 -0.003166 0.000825 0.001006 0.000908 0.000819
0.169900 0.000189 -0.003203 0.000838 0.001009 0.000908 0.000821
0.172600 0.000191 -0.003238 0.000851 0.001012 0.000909 0.000823
0.175300 0.000194 -0.003272 0.000863 0.001015 0.000909 0.000824
0.178100 0.000197 -0.003308 0.000876 0.001017 0.000910 0.000826
0.180800 0.000199 -0.003342 0.000888 0.001020 0.000910 0.000828
0.183600 0.000202 -0.003377 0.000901 0.001023 0.000911 0.000830
0.186300 0.000204 -0.003411 0.000913 0.001025 0.000911 0.000831
0.189000 0.000207 -0.003444 0.000925 0.001028 0.000911 0.000833
0.191800 0.000209 -0.003478 0.000938 0.001031 0.000911 0.000834
0.194500 0.000211 -0.003511 0.000949 0.001033 0.000912 0.000836
0.200000 0.000216 -0.003576 0.000973 0.001039 0.000912 0.000839
0.202700 0.000219 -0.003608 0.000985 0.001041 0.000912 0.000840
0.205500 0.000221 -0.003641 0.000997 0.001044 0.000912 0.000842
0.208200 0.000224 -0.003672 0.001008 0.001047 0.000912 0.000843
0.211000 0.000226 -0.003705 0.001020 0.001049 0.000912 0.000844
0.213700 0.000228 -0.003735 0.001031 0.001052 0.000912 0.000846
0.216400 0.000231 -0.003766 0.001042 0.001054 0.000912 0.000847
0.219200 0.000233 -0.003798 0.001054 0.001057 0.000912 0.000848
0.221900 0.000235 -0.003828 0.001065 0.001060 0.000912 0.000849
0.224700 0.000238 -0.003859 0.001076 0.001062 0.000912 0.000851
0.227400 0.000240 -0.003888 0.001087 0.001065 0.000912 0.000852
0.230100 0.000242 -0.003918 0.001097 0.001067 0.000912 0.000853
0.232900 0.000245 -0.003948 0.001108 0.001070 0.000912 0.000854
0.235600 0.000247 -0.003977 0.001119 0.001072 0.000912 0.000855
0.238400 0.000249 -0.004007 0.001129 0.001075 0.000912 0.000856
0.241100 0.000251 -0.004036 0.001139 0.001077 0.000912 0.000857
0.243800 0.000254 -0.004064 0.001150 0.001079 0.000911 0.000858
0.246600 0.000256 -0.004093 0.001160 0.001082 0.000911 0.000859
0.249300 0.000258 -0.004121 0.001170 0.001084 0.000911 0.000860
0.252100 0.000260 -0.004150 0.001180 0.001087 0.000911 0.000861
0.254800 0.000262 -0.004178 0.001190 0.001089 0.000911 0.000862
0.257500 0.000265 -0.004205 0.001199 0.001091 0.000910 0.000863
0.260300 0.000267 -0.004233 0.001209 0.001094 0.000910 0.000864
0.263000 0.000269 -0.004260 0.001218 0.001096 0.000910 0.000865
0.265800 0.000271 -0.004288 0.001228 0.001098 0.000909 0.000866
0.268500 0.000273 -0.004315 0.001237 0.001101 0.000909 0.000867
0.271200 0.000275 -0.004341 0.001246 0.001103 0.000909 0.000868
0.274000 0.000277 -0.004368 0.001255 0.001105 0.000909 0.000869
0.276700 0.000280 -0.004395 0.001264 0.001107 0.000908 0.000869
0.279500 0.000282 -0.004421 0.001273 0.001109 0.000908 0.000870
0.282200 0.000284 -0.004447 0.001281 0.001112 0.000908 0.000871
0.284900 0.000286 -0.004473 0.001289 0.001114 0.000907 0.000872
0.287700 0.000288 -0.004499 0.001298 0.001116 0.000907 0.000873
0.290400 0.000290 -0.004524 0.001306 0.001118 0.000906 0.000874
0.293200 0.000292 -0.004550 0.001315 0.001120 0.000906 0.000875
0.295900 0.000294 -0.004575 0.001322 0.001122 0.000906 0.000875
0.298600 0.000296 -0.004600 0.001330 0.001124 0.000905 0.000876
0.301400 0.000298 -0.004626 0.001338 0.001126 0.000905 0.000877
0.304100 0.000300 -0.004650 0.001346 0.001128 0.000905 0.000878
0.306900 0.000302 -0.004675 0.001354 0.001130 0.000904 0.000879
0.309600 0.000304 -0.004699 0.001361 0.001132 0.000904 0.000879
0.312300 0.000306 -0.004723 0.001368 0.001134 0.000903 0.000880
0.315100 0.000308 -0.004748 0.001375 0.001136 0.000903 0.000881
0.317800 0.000310 -0.004772 0.001382 0.001138 0.000902 0.000882
0.320600 0.000312 -0.004796 0.001389 0.001140 0.000902 0.000883
0.323300 0.000314 -0.004820 0.001396 0.001141 0.000902 0.000883
0.326000 0.000316 -0.004843 0.001403 0.001143 0.000901 0.000884
0.328800 0.000318 -0.004867 0.001410 0.001145 0.000901 0.000885
0.331500 0.000320 -0.004890 0.001416 0.001147 0.000900 0.000886
0.334300 0.000322 -0.004914 0.001422 0.001149 0.000900 0.000887
0.337000 0.000324 -0.004936 0.001429 0.001150 0.000899 0.000887
0.339700 0.000325 -0.004959 0.001435 0.001152 0.000899 0.000888
0.342500 0.000327 -0.004982 0.001441 0.001154 0.000898 0.000889
0.345200 0.000329 -0.005004 0.001446 0.001155 0.000898 0.000890
0.347900 0.000331 -0.005027 0.001452 0.001157 0.000897 0.000890
0.350700 0.000333 -0.005049 0.001458 0.001159 0.000897 0.000891
0.353400 0.000335 -0.005071 0.001463 0.001160 0.000897 0.000892
0.356200 0.000337 -0.005094 0.001469 0.001162 0.000896 0.000893
0.358900 0.000339 -0.005116 0.001474 0.001163 0.000896 0.000894
0.361600 0.000340 -0.005137 0.001479 0.001165 0.000895 0.000894
0.364400 0.000342 -0.005160 0.001484 0.001166 0.000895 0.000895
0.367100 0.000344 -0.005181 0.001489 0.001168 0.000894 0.000896
0.369900 0.000346 -0.005203 0.001494 0.001169 0.000894 0.000897
0.372600 0.000348 -0.005224 0.001498 0.001171 0.000893 0.000897
0.375300 0.000349 -0.005245 0.001503 0.001172 0.000893 0.000898
0.378100 0.000351 -0.005267 0.001507 0.001174 0.000892 0.000899
0.380800 0.000353 -0.005287 0.001512 0.001175 0.000892 0.000900
0.383600 0.000355 -0.005309 0.001516 0.001176 0.000891 0.000901
0.386300 0.000357 -0.005329 0.001520 0.001178 0.000891 0.000901
0.389000 0.000358 -0.005350 0.001524 0.001179 0.000890 0.000902
0.391800 0.000360 -0.005371 0.001528 0.001180 0.000890 0.000903
0.394500 0.000362 -0.005391 0.001532 0.001182 0.000889 0.000904
0.397300 0.000364 -0.005412 0.001535 0.001183 0.000889 0.000905
0.400000 0.000365 -0.005432 0.001539 0.001184 0.000888 0.000905
0.402700 0.000367 -0.005452 0.001542 0.001185 0.000888 0.000906
0.405500 0.000369 -0.005472 0.001545 0.001187 0.000887 0.000907
0.408200 0.000371 -0.005492 0.001548 0.001188 0.000887 0.000908
0.411000 0.000372 -0.005512 0.001551 0.001189 0.000887 0.000909
0.413700 0.000374 -0.005532 0.001554 0.001190 0.000886 0.000909
0.416400 0.000376 -0.005551 0.001557 0.001191 0.000886 0.000910
0.419200 0.000377 -0.005571 0.001560 0.001192 0.000885 0.000911
0.421900 0.000379 -0.005590 0.001562 0.001193 0.000885 0.000912
0.424700 0.000381 -0.005610 0.001565 0.001195 0.000884 0.000913
0.427400 0.000382 -0.005629 0.001567 0.001196 0.000884 0.000913
0.430100 0.000384 -0.005648 0.001569 0.001197 0.000883 0.000914
0.432900 0.000386 -0.005667 0.001572 0.001198 0.000883 0.000915
0.435600 0.000387 -0.005686 0.001574 0.001199 0.000882 0.000916
0.438400 0.000389 -0.005705 0.001575 0.001200 0.000882 0.000917
0.441100 0.000391 -0.005724 0.001577 0.001201 0.000881 0.000917
0.443800 0.000392 -0.005742 0.001579 0.001201 0.000881 0.000918
0.446600 0.000394 -0.005761 0.001580 0.001202 0.000880 0.000919
0.449300 0.000396 -0.005780 0.001582 0.001203 0.000880 0.000920
0.452100 0.000397 -0.005799 0.001583 0.001204 0.000880 0.000921
0.454800 0.000399 -0.005817 0.001585 0.001205 0.000879 0.000921
0.457500 0.000400 -0.005835 0.001586 0.001206 0.000879 0.000922
0.460300 0.000402 -0.005853 0.001587 0.001207 0.000878 0.000923
0.463000 0.000404 -0.005871 0.001588 0.001208 0.000878 0.000924
0.465800 0.000405 -0.005890 0.001588 0.001208 0.000877 0.000925
0.468500 0.000407 -0.005907 0.001589 0.001209 0.000877 0.000926
0.471200 0.000408 -0.005925 0.001590 0.001210 0.000876 0.000926
0.474000 0.000410 -0.005943 0.001590 0.001211 0.000876 0.000927
0.476700 0.000412 -0.005961 0.001591 0.001212 0.000876 0.000928
0.479500 0.000413 -0.005979 0.001591 0.001212 0.000875 0.000929
0.482200 0.000415 -0.005996 0.001591 0.001213 0.000875 0.000930
0.484900 0.000416 -0.006013 0.001591 0.001214 0.000874 0.000930
0.487700 0.000418 -0.006031 0.001591 0.001214 0.000874 0.000931
0.490400 0.000419 -0.006048 0.001591 0.001215 0.000873 0.000932
0.493200 0.000421 -0.006065 0.001591 0.001216 0.000873 0.000933
0.495900 0.000422 -0.006082 0.001590 0.001216 0.000872 0.000934
0.498600 0.000424 -0.006099 0.001590 0.001217 0.000872 0.000934
0.501400 0.000425 -0.006117 0.001589 0.001218 0.000872 0.000935
0.504100 0.000427 -0.006133 0.001589 0.001218 0.000871 0.000936
0.506900 0.000428 -0.006151 0.001588 0.001219 0.000871 0.000937
0.509600 0.000430 -0.006167 0.001587 0.001219 0.000870 0.000938
0.512300 0.000431 -0.006184 0.001586 0.001220 0.000870 0.000938
0.517800 0.000434 -0.006217 0.001584 0.001221 0.000869 0.000940
0.520600 0.000436 -0.006234 0.001583 0.001222 0.000869 0.000941
0.523300 0.000437 -0.006250 0.001582 0.001222 0.000868 0.000941
0.526000 0.000439 -0.006266 0.001580 0.001223 0.000868 0.000942
0.528800 0.000440 -0.006283 0.001579 0.001223 0.000868 0.000943
0.531500 0.000442 -0.006299 0.001577 0.001224 0.000867 0.000944
0.534300 0.000443 -0.006315 0.001575 0.001224 0.000867 0.000945
0.537000 0.000444 -0.006331 0.001574 0.001225 0.000866 0.000945
0.539700 0.000446 -0.006347 0.001572 0.001225 0.000866 0.000946
0.542500 0.000447 -0.006363 0.001570 0.001226 0.000866 0.000947
0.545200 0.000449 -0.006379 0.001568 0.001226 0.000865 0.000948
0.547900 0.000450 -0.006395 0.001566 0.001226 0.000865 0.000948
0.550700 0.000452 -0.006411 0.001563 0.001227 0.000864 0.000949
0.553400 0.000453 -0.006426 0.001561 0.001227 0.000864 0.000950
0.556200 0.000454 -0.006442 0.001559 0.001228 0.000864 0.000951
0.558900 0.000456 -0.006458 0.001556 0.001228 0.000863 0.000951
0.561600 0.000457 -0.006473 0.001553 0.001228 0.000863 0.000952
0.564400 0.000458 -0.006489 0.001551 0.001229 0.000863 0.000953
0.567100 0.000460 -0.006504 0.001548 0.001229 0.000862 0.000954
0.569900 0.000461 -0.006520 0.001545 0.001229 0.000862 0.000954
0.572600 0.000463 -0.006535 0.001542 0.001230 0.000862 0.000955
0.575300 0.000464 -0.006550 0.001539 0.001230 0.000861 0.000956
0.578100 0.000465 -0.006565 0.001536 0.001230 0.000861 0.000957
0.580800 0.000467 -0.006580 0.001533 0.001231 0.000861 0.000957
0.583600 0.000468 -0.006596 0.001529 0.001231 0.000860 0.000958
0.586300 0.000469 -0.006611 0.001526 0.001231 0.000860 0.000959
0.589000 0.000471 -0.006625 0.001523 0.001232 0.000859 0.000960
0.591800 0.000472 -0.006641 0.001519 0.001232 0.000859 0.000960
0.594500 0.000473 -0.006655 0.001516 0.001232 0.000859 0.000961
0.597300 0.000475 -0.006670 0.001512 0.001233 0.000858 0.000962
0.600000 0.000476 -0.006685 0.001508 0.001233 0.000858 0.000963
0.602700 0.000477 -0.006699 0.001504 0.001233 0.000858 0.000963
0.605500 0.000479 -0.006714 0.001500 0.001233 0.000858 0.000964
0.608200 0.000480 -0.006729 0.001496 0.001234 0.000857 0.000965
0.611000 0.000481 -0.006743 0.001492 0.001234 0.000857 0.000965
0.613700 0.000482 -0.006758 0.001488 0.001234 0.000857 0.000966
0.616400 0.000484 -0.006772 0.001484 0.001234 0.000856 0.000967
0.619200 0.000485 -0.006787 0.001479 0.001235 0.000856 0.000968
0.621900 0.000486 -0.006801 0.001475 0.001235 0.000856 0.000968
0.624700 0.000487 -0.006815 0.001470 0.001235 0.000855 0.000969
0.627400 0.000489 -0.006829 0.001466 0.001235 0.000855 0.000970
0.630100 0.000490 -0.006843 0.001461 0.001236 0.000855 0.000970
0.632900 0.000491 -0.006858 0.001456 0.001236 0.000854 0.000971
0.635600 0.000492 -0.006872 0.001452 0.001236 0.000854 0.000972
0.638400 0.000494 -0.006886 0.001447 0.001236 0.000854 0.000972
0.641100 0.000495 -0.006900 0.001442 0.001236 0.000854 0.000973
0.643800 0.000496 -0.006913 0.001437 0.001237 0.000853 0.000974
0.646600 0.000497 -0.006928 0.001432 0.001237 0.000853 0.000975
0.649300 0.000499 -0.006941 0.001427 0.001237 0.000853 0.000975
0.652100 0.000500 -0.006955 0.001421 0.001237 0.000852 0.000976
0.654800 0.000501 -0.006969 0.001416 0.001237 0.000852 0.000977
0.657500 0.000502 -0.006982 0.001411 0.001237 0.000852 0.000977
0.660300 0.000503 -0.006996 0.001405 0.001238 0.000852 0.000978
0.663000 0.000504 -0.007010 0.001400 0.001238 0.000851 0.000979
0.665800 0.000506 -0.007024 0.001394 0.001238 0.000851 0.000979
0.668500 0.000507 -0.007037 0.001389 0.001238 0.000851 0.000980
0.671200 0.000508 -0.007050 0.001383 0.001238 0.000850 0.000981
0.674000 0.000509 -0.007064 0.001377 0.001239 0.000850 0.000981
0.676700 0.000510 -0.007077 0.001371 0.001239 0.000850 0.000982
0.679500 0.000512 -0.007091 0.001365 0.001239 0.000850 0.000983
0.682200 0.000513 -0.007104 0.001359 0.001239 0.000849 0.000983
0.684900 0.000514 -0.007117 0.001353 0.001239 0.000849 0.000984
0.687700 0.000515 -0.007130 0.001347 0.001239 0.000849 0.000985
0.690400 0.000516 -0.007143 0.001341 0.001240 0.000849 0.000985
0.693200 0.000517 -0.007157 0.001335 0.001240 0.000848 0.000986
0.695900 0.000518 -0.007170 0.001329 0.001240 0.000848 0.000987
0.698600 0.000519 -0.007183 0.001322 0.001240 0.000848 0.000987
0.701400 0.000521 -0.007196 0.001316 0.001240 0.000848 0.000988
0.704100 0.000522 -0.007209 0.001309 0.001240 0.000848 0.000989
0.706900 0.000523 -0.007222 0.001303 0.001241 0.000847 0.000989
0.709600 0.000524 -0.007235 0.001296 0.001241 0.000847 0.000990
0.712300 0.000525 -0.007247 0.001290 0.001241 0.000847 0.000991
0.715100 0.000526 -0.007260 0.001283 0.001241 0.000847 0.000991
0.717800 0.000527 -0.007273 0.001276 0.001241 0.000846 0.000992
0.720600 0.000528 -0.007286 0.001269 0.001241 0.000846 0.000993
0.723300 0.000529 -0.007298 0.001262 0.001241 0.000846 0.000993
0.726000 0.000530 -0.007311 0.001255 0.001242 0.000846 0.000994
0.728800 0.000531 -0.007324 0.001248 0.001242 0.000846 0.000995
0.731500 0.000532 -0.007336 0.001241 0.001242 0.000845 0.000995
0.734300 0.000533 -0.007349 0.001234 0.001242 0.000845 0.000996
0.737000 0.000534 -0.007361 0.001227 0.001242 0.000845 0.000997
0.739700 0.000535 -0.007373 0.001220 0.001242 0.000845 0.000997
0.742500 0.000536 -0.007386 0.001212 0.001243 0.000844 0.000998
0.745200 0.000537 -0.007398 0.001205 0.001243 0.000844 0.000999
0.747900 0.000538 -0.007411 0.001198 0.001243 0.000844 0.000999
0.750700 0.000539 -0.007423 0.001190 0.001243 0.000844 0.001000
0.753400 0.000540 -0.007435 0.001183 0.001243 0.000844 0.001001
0.756200 0.000542 -0.007448 0.001175 0.001244 0.000844 0.001001
0.758900 0.000542 -0.007460 0.001168 0.001244 0.000843 0.001002
0.761600 0.000543 -0.007472 0.001160 0.001244 0.000843 0.001003
0.764400 0.000544 -0.007484 0.001152 0.001244 0.000843 0.001003
0.767100 0.000545 -0.007496 0.001144 0.001244 0.000843 0.001004
0.769900 0.000546 -0.007508 0.001136 0.001244 0.000843 0.001005
0.772600 0.000547 -0.007520 0.001129 0.001245 0.000842 0.001005
0.775300 0.000548 -0.007532 0.001121 0.001245 0.000842 0.001006
0.778100 0.000549 -0.007544 0.001113 0.001245 0.000842 0.001007
0.780800 0.000550 -0.007556 0.001105 0.001245 0.000842 0.001007
0.783600 0.000551 -0.007568 0.001097 0.001245 0.000842 0.001008
0.786300 0.000552 -0.007580 0.001089 0.001246 0.000842 0.001009
0.789000 0.000553 -0.007592 0.001081 0.001246 0.000841 0.001009
0.791800 0.000554 -0.007604 0.001072 0.001246 0.000841 0.001010
0.794500 0.000555 -0.007615 0.001064 0.001246 0.000841 0.001011
0.797300 0.000556 -0.007627 0.001056 0.001247 0.000841 0.001011
0.800000 0.000557 -0.007639 0.001047 0.001247 0.000841 0.001012
0.802700 0.000558 -0.007650 0.001039 0.001247 0.000841 0.001013
0.805500 0.000558 -0.007662 0.001031 0.001247 0.000841 0.001013
0.808200 0.000559 -0.007674 0.001022 0.001247 0.000840 0.001014
0.811000 0.000560 -0.007685 0.001014 0.001248 0.000840 0.001015
0.813700 0.000561 -0.007697 0.001005 0.001248 0.000840 0.001015
0.816400 0.000562 -0.007708 0.000997 0.001248 0.000840 0.001016
0.819200 0.000563 -0.007720 0.000988 0.001248 0.000840 0.001017
0.821900 0.000564 -0.007731 0.000979 0.001249 0.000840 0.001017
0.824700 0.000565 -0.007743 0.000970 0.001249 0.000840 0.001018
0.827400 0.000565 -0.007754 0.000962 0.001249 0.000839 0.001019
0.830100 0.000566 -0.007765 0.000953 0.001249 0.000839 0.001020
0.832900 0.000567 -0.007777 0.000944 0.001250 0.000839 0.001020
0.835600 0.000568 -0.007788 0.000935 0.001250 0.000839 0.001021
0.838400 0.000569 -0.007800 0.000926 0.001250 0.000839 0.001022
0.841100 0.000570 -0.007811 0.000917 0.001251 0.000839 0.001022
0.843800 0.000570 -0.007822 0.000908 0.001251 0.000839 0.001023
0.846600 0.000571 -0.007833 0.000899 0.001251 0.000839 0.001024
0.849300 0.000572 -0.007844 0.000890 0.001251 0.000838 0.001025
0.852100 0.000573 -0.007856 0.000881 0.001252 0.000838 0.001025
0.854800 0.000574 -0.007866 0.000872 0.001252 0.000838 0.001026
