# time (yr) north(m) east(m) up(m) northsigma(m) eastsigma(m) upsigma(m)
0.000000 0.000000 0.000000 0.000000 0.000749 0.000652 0.001349
0.002700 -0.000001 -0.000006 -0.000022 0.000749 0.000652 0.001349
0.005500 -0.000002 -0.000011 -0.000046 0.000749 0.000652 0.001350
0.008200 -0.000003 -0.000017 -0.000068 0.000749 0.000653 0.001352
0.011000 -0.000004 -0.000023 -0.000091 0.000749 0.000653 0.001354
0.013700 -0.000005 -0.000029 -0.000114 0.000749 0.000654 0.001356
0.016400 -0.000006 -0.000035 -0.000136 0.000749 0.000654 0.001359
0.019200 -0.000007 -0.000041 -0.000159 0.000749 0.000655 0.001362
0.021900 -0.000008 -0.000047 -0.000181 0.000749 0.000656 0.001365
0.024700 -0.000009 -0.000053 -0.000204 0.000750 0.000657 0.001369
0.027400 -0.000010 -0.000059 -0.000226 0.000750 0.000658 0.001373
0.030100 -0.000011 -0.000065 -0.000249 0.000750 0.000659 0.001377
0.032900 -0.000012 -0.000071 -0.000272 0.000750 0.000660 0.001382
0.035600 -0.000013 -0.000078 -0.000294 0.000750 0.000661 0.001386
0.038400 -0.000014 -0.000084 -0.000316 0.000750 0.000663 0.001391
0.041100 -0.000015 -0.000090 -0.000339 0.000750 0.000664 0.001396
0.043800 -0.000016 -0.000096 -0.000361 0.000750 0.000665 0.001400
0.046600 -0.000017 -0.000102 -0.000383 0.000750 0.000667 0.001405
0.049300 -0.000018 -0.000109 -0.000405 0.000750 0.000669 0.001410
0.052100 -0.000019 -0.000115 -0.000428 0.000750 0.000670 0.001415
0.054800 -0.000020 -0.000121 -0.000450 0.000751 0.000672 0.001420
0.057500 -0.000021 -0.000127 -0.000472 0.000751 0.000674 0.001425
0.060300 -0.000022 -0.000134 -0.000495 0.000751 0.000676 0.001430
0.063000 -0.000023 -0.000140 -0.000517 0.000751 0.000678 0.001435
0.065800 -0.000024 -0.000146 -0.000539 0.000751 0.000680 0.001439
0.068500 -0.000025 -0.000152 -0.000561 0.000751 0.000682 0.001444
0.071200 -0.000026 -0.000158 -0.000583 0.000751 0.000684 0.001449
0.074000 -0.000027 -0.000165 -0.000606 0.000751 0.000686 0.001453
0.076700 -0.000028 -0.000171 -0.000628 0.000752 0.000688 0.001458
0.079500 -0.000030 -0.000177 -0.000650 0.000752 0.000691 0.001462
0.082200 -0.000031 -0.000183 -0.000672 0.000752 0.000693 0.001467
0.084900 -0.000032 -0.000189 -0.000694 0.000752 0.000695 0.001471
0.087700 -0.000033 -0.000195 -0.000716 0.000752 0.000698 0.001475
0.090400 -0.000034 -0.000201 -0.000738 0.000753 0.000700 0.001479
0.093200 -0.000035 -0.000208 -0.000761 0.000753 0.000702 0.001483
0.095900 -0.000036 -0.000214 -0.000783 0.000753 0.000705 0.001487
0.098600 -0.000037 -0.000220 -0.000804 0.000753 0.000707 0.001491
0.101400 -0.000038 -0.000226 -0.000827 0.000753 0.000709 0.001495
0.104100 -0.000039 -0.000232 -0.000849 0.000754 0.000712 0.001499
0.106900 -0.000040 -0.000238 -0.000871 0.000754 0.000714 0.001502
0.109600 -0.000041 -0.000243 -0.000893 0.000754 0.000717 0.001506
0.112300 -0.000042 -0.000249 -0.000915 0.000754 0.000719 0.001509
0.115100 -0.000043 -0.000255 -0.000937 0.000754 0.000722 0.001513
0.117800 -0.000044 -0.000261 -0.000959 0.000755 0.000724 0.001516
0.120600 -0.000045 -0.000267 -0.000981 0.000755 0.000727 0.001519
0.123300 -0.000046 -0.000273 -0.001003 0.000755 0.000729 0.001522
0.126000 -0.000047 -0.000278 -0.001025 0.000755 0.000732 0.001525
0.128800 -0.000048 -0.000284 -0.001047 0.000756 0.000734 0.001528
0.131500 -0.000050 -0.000290 -0.001069 0.000756 0.000737 0.001531
0.134300 -0.000051 -0.000295 -0.001091 0.000756 0.000740 0.001534
0.137000 -0.000052 -0.000301 -0.001113 0.000756 0.000742 0.001537
0.139700 -0.000053 -0.000306 -0.001135 0.000757 0.000744 0.001539
0.142500 -0.000054 -0.000312 -0.001157 0.000757 0.000747 0.001542
0.145200 -0.000055 -0.000317 -0.001179 0.000757 0.000750 0.001544
0.147900 -0.000056 -0.000323 -0.001200 0.000757 0.000752 0.001547
0.150700 -0.000057 -0.000328 -0.001223 0.000758 0.000755 0.001549
0.153400 -0.000058 -0.000333 -0.001244 0.000758 0.000757 0.001552
0.156200 -0.000059 -0.000339 -0.001267 0.000758 0.000759 0.001554
0.158900 -0.000060 -0.000344 -0.001289 0.000758 0.000762 0.001556
0.161600 -0.000061 -0.000349 -0.001310 0.000759 0.000764 0.001559
0.164400 -0.000062 -0.000355 -0.001333 0.000759 0.000767 0.001561
0.167100 -0.000064 -0.000360 -0.001354 0.000759 0.000769 0.001563
0.169900 -0.000065 -0.000365 -0.001377 0.000760 0.000772 0.001565
0.172600 -0.000066 -0.000370 -0.001398 0.000760 0.000774 0.001567
0.175300 -0.000067 -0.000375 -0.001420 0.000760 0.000776 0.001569
0.178100 -0.000068 -0.000380 -0.001442 0.000760 0.000779 0.001571
0.180800 -0.000069 -0.000385 -0.001464 0.000761 0.000781 0.001573
0.183600 -0.000070 -0.000390 -0.001486 0.000761 0.000784 0.001575
0.186300 -0.000071 -0.000395 -0.001508 0.000761 0.000786 0.001577
0.189000 -0.000072 -0.000400 -0.001529 0.000762 0.000788 0.001579
0.191800 -0.000073 -0.000404 -0.001552 0.000762 0.000790 0.001581
0.194500 -0.000074 -0.000409 -0.001573 0.000762 0.000793 0.001583
0.197300 -0.000076 -0.000414 -0.001595 0.000763 0.000795 0.001585
0.200000 -0.000077 -0.000419 -0.001617 0.000763 0.000797 0.001587
0.202700 -0.000078 -0.000423 -0.001638 0.000763 0.000799 0.001588
0.205500 -0.000079 -0.000428 -0.001661 0.000764 0.000802 0.001590
0.208200 -0.000080 -0.000432 -0.001682 0.000764 0.000804 0.001592
0.211000 -0.000081 -0.000437 -0.001705 0.000764 0.000806 0.001594
0.213700 -0.000082 -0.000441 -0.001726 0.000765 0.000808 0.001595
0.219200 -0.000084 -0.000450 -0.001770 0.000765 0.000812 0.001599
0.235600 -0.000091 -0.000475 -0.001900 0.000767 0.000825 0.001608
0.238400 -0.000092 -0.000480 -0.001922 0.000768 0.000827 0.001610
0.241100 -0.000093 -0.000484 -0.001944 0.000768 0.000829 0.001612
0.243800 -0.000095 -0.000488 -0.001965 0.000768 0.000831 0.001613
0.246600 -0.000096 -0.000492 -0.001987 0.000769 0.000833 0.001615
0.249300 -0.000097 -0.000495 -0.002009 0.000769 0.000834 0.001616
0.252100 -0.000098 -0.000499 -0.002031 0.000769 0.000836 0.001618
0.254800 -0.000099 -0.000503 -0.002052 0.000770 0.000838 0.001620
0.257500 -0.000100 -0.000507 -0.002074 0.000770 0.000840 0.001621
0.260300 -0.000101 -0.000511 -0.002096 0.000771 0.000842 0.001623
0.263000 -0.000103 -0.000514 -0.002117 0.000771 0.000844 0.001624
0.265800 -0.000104 -0.000518 -0.002139 0.000771 0.000846 0.001626
0.268500 -0.000105 -0.000522 -0.002161 0.000772 0.000847 0.001627
0.271200 -0.000106 -0.000525 -0.002182 0.000772 0.000849 0.001629
0.274000 -0.000107 -0.000529 -0.002204 0.000772 0.000851 0.001630
0.276700 -0.000108 -0.000532 -0.002225 0.000773 0.000853 0.001632
0.290400 -0.000114 -0.000549 -0.002333 0.000775 0.000861 0.001640
0.293200 -0.000115 -0.000553 -0.002355 0.000775 0.000863 0.001641
0.295900 -0.000116 -0.000556 -0.002376 0.000775 0.000865 0.001643
0.298600 -0.000117 -0.000559 -0.002397 0.000776 0.000866 0.001644
0.301400 -0.000119 -0.000562 -0.002419 0.000776 0.000868 0.001646
0.304100 -0.000120 -0.000565 -0.002440 0.000777 0.000869 0.001647
0.306900 -0.000121 -0.000568 -0.002462 0.000777 0.000871 0.001649
0.309600 -0.000122 -0.000571 -0.002483 0.000777 0.000873 0.001650
0.312300 -0.000123 -0.000574 -0.002504 0.000778 0.000874 0.001652
0.315100 -0.000125 -0.000577 -0.002526 0.000778 0.000876 0.001653
0.317800 -0.000126 -0.000580 -0.002547 0.000779 0.000877 0.001655
0.320600 -0.000127 -0.000583 -0.002569 0.000779 0.000879 0.001656
0.323300 -0.000128 -0.000586 -0.002590 0.000779 0.000880 0.001658
0.326000 -0.000129 -0.000588 -0.002611 0.000780 0.000882 0.001659
0.328800 -0.000130 -0.000591 -0.002633 0.000780 0.000883 0.001661
0.331500 -0.000132 -0.000594 -0.002654 0.000781 0.000885 0.001663
0.334300 -0.000133 -0.000597 -0.002676 0.000781 0.000886 0.001664
0.337000 -0.000134 -0.000599 -0.002697 0.000781 0.000888 0.001666
0.339700 -0.000135 -0.000602 -0.002717 0.000782 0.000889 0.001667
0.342500 -0.000136 -0.000604 -0.002739 0.000782 0.000890 0.001669
0.345200 -0.000137 -0.000607 -0.002760 0.000783 0.000892 0.001670
0.347900 -0.000139 -0.000609 -0.002781 0.000783 0.000893 0.001672
0.350700 -0.000140 -0.000612 -0.002802 0.000784 0.000895 0.001673
0.353400 -0.000141 -0.000614 -0.002823 0.000784 0.000896 0.001675
0.356200 -0.000142 -0.000617 -0.002845 0.000784 0.000897 0.001676
0.358900 -0.000143 -0.000619 -0.002866 0.000785 0.000899 0.001678
0.361600 -0.000145 -0.000621 -0.002886 0.000785 0.000900 0.001679
0.364400 -0.000146 -0.000624 -0.002908 0.000786 0.000901 0.001681
0.367100 -0.000147 -0.000626 -0.002929 0.000786 0.000903 0.001682
0.369900 -0.000148 -0.000628 -0.002950 0.000786 0.000904 0.001684
0.372600 -0.000149 -0.000630 -0.002971 0.000787 0.000905 0.001685
0.375300 -0.000151 -0.000632 -0.002991 0.000787 0.000907 0.001686
0.378100 -0.000152 -0.000635 -0.003013 0.000788 0.000908 0.001688
0.380800 -0.000153 -0.000637 -0.003034 0.000788 0.000909 0.001689
0.383600 -0.000154 -0.000639 -0.003055 0.000789 0.000911 0.001691
0.386300 -0.000155 -0.000641 -0.003075 0.000789 0.000912 0.001692
0.389000 -0.000157 -0.000643 -0.003096 0.000789 0.000913 0.001694
0.391800 -0.000158 -0.000645 -0.003117 0.000790 0.000914 0.001695
0.405500 -0.000164 -0.000654 -0.003221 0.000792 0.000920 0.001703
0.408200 -0.000165 -0.000655 -0.003242 0.000792 0.000922 0.001704
0.411000 -0.000166 -0.000657 -0.003263 0.000793 0.000923 0.001705
0.413700 -0.000167 -0.000659 -0.003283 0.000793 0.000924 0.001707
0.416400 -0.000169 -0.000660 -0.003303 0.000794 0.000925 0.001708
0.419200 -0.000170 -0.000662 -0.003324 0.000794 0.000926 0.001710
0.421900 -0.000171 -0.000664 -0.003345 0.000795 0.000928 0.001711
0.424700 -0.000172 -0.000665 -0.003366 0.000795 0.000929 0.001713
0.427400 -0.000174 -0.000667 -0.003386 0.000796 0.000930 0.001714
0.430100 -0.000175 -0.000668 -0.003406 0.000796 0.000931 0.001715
0.432900 -0.000176 -0.000670 -0.003427 0.000796 0.000932 0.001717
0.435600 -0.000177 -0.000671 -0.003447 0.000797 0.000933 0.001718
0.438400 -0.000179 -0.000672 -0.003468 0.000797 0.000935 0.001720
0.441100 -0.000180 -0.000674 -0.003488 0.000798 0.000936 0.001721
0.443800 -0.000181 -0.000675 -0.003508 0.000798 0.000937 0.001722
0.446600 -0.000182 -0.000676 -0.003529 0.000799 0.000938 0.001724
0.449300 -0.000183 -0.000678 -0.003549 0.000799 0.000939 0.001725
0.452100 -0.000185 -0.000679 -0.003570 0.000800 0.000940 0.001726
0.454800 -0.000186 -0.000680 -0.003590 0.000800 0.000941 0.001728
0.457500 -0.000187 -0.000681 -0.003610 0.000800 0.000942 0.001729
0.460300 -0.000188 -0.000682 -0.003630 0.000801 0.000944 0.001731
0.463000 -0.000190 -0.000684 -0.003650 0.000801 0.000945 0.001732
0.465800 -0.000191 -0.000685 -0.003671 0.000802 0.000946 0.001733
0.468500 -0.000192 -0.000686 -0.003691 0.000802 0.000947 0.001735
0.471200 -0.000193 -0.000687 -0.003710 0.000803 0.000948 0.001736
0.474000 -0.000195 -0.000688 -0.003731 0.000803 0.000949 0.001737
0.476700 -0.000196 -0.000689 -0.003751 0.000804 0.000950 0.001739
0.479500 -0.000197 -0.000690 -0.003771 0.000804 0.000951 0.001740
0.482200 -0.000198 -0.000691 -0.003791 0.000805 0.000952 0.001741
0.484900 -0.000200 -0.000692 -0.003810 0.000805 0.000953 0.001742
0.487700 -0.000201 -0.000692 -0.003831 0.000805 0.000954 0.001744
0.490400 -0.000202 -0.000693 -0.003850 0.000806 0.000955 0.001745
0.493200 -0.000203 -0.000694 -0.003871 0.000806 0.000956 0.001746
0.495900 -0.000205 -0.000695 -0.003890 0.000807 0.000958 0.001748
0.498600 -0.000206 -0.000696 -0.003910 0.000807 0.000959 0.001749
0.501400 -0.000207 -0.000696 -0.003930 0.000808 0.000960 0.001750
0.504100 -0.000208 -0.000697 -0.003949 0.000808 0.000961 0.001752
0.506900 -0.000210 -0.000698 -0.003969 0.000809 0.000962 0.001753
0.509600 -0.000211 -0.000698 -0.003989 0.000809 0.000963 0.001754
0.512300 -0.000212 -0.000699 -0.004008 0.000810 0.000964 0.001755
0.517800 -0.000215 -0.000700 -0.004047 0.000811 0.000966 0.001758
0.520600 -0.000216 -0.000701 -0.004067 0.000811 0.000967 0.001759
0.523300 -0.000217 -0.000701 -0.004087 0.000811 0.000968 0.001760
0.528800 -0.000220 -0.000702 -0.004126 0.000812 0.000970 0.001763
0.531500 -0.000221 -0.000703 -0.004145 0.000813 0.000971 0.001764
0.534300 -0.000222 -0.000703 -0.004165 0.000813 0.000972 0.001765
0.537000 -0.000223 -0.000704 -0.004184 0.000814 0.000973 0.001766
0.539700 -0.000225 -0.000704 -0.004203 0.000814 0.000974 0.001768
0.542500 -0.000226 -0.000704 -0.004222 0.000815 0.000975 0.001769
0.545200 -0.000227 -0.000705 -0.004241 0.000815 0.000976 0.001770
0.547900 -0.000229 -0.000705 -0.004260 0.000816 0.000977 0.001771
0.550700 -0.000230 -0.000705 -0.004280 0.000816 0.000978 0.001772
0.553400 -0.000231 -0.000706 -0.004299 0.000817 0.000979 0.001774
0.556200 -0.000232 -0.000706 -0.004318 0.000817 0.000980 0.001775
0.558900 -0.000234 -0.000706 -0.004337 0.000818 0.000981 0.001776
0.561600 -0.000235 -0.000706 -0.004356 0.000818 0.000982 0.001777
0.564400 -0.000236 -0.000707 -0.004375 0.000818 0.000983 0.001778
0.567100 -0.000237 -0.000707 -0.004394 0.000819 0.000984 0.001779
0.569900 -0.000239 -0.000707 -0.004414 0.000819 0.000985 0.001781
0.572600 -0.000240 -0.000707 -0.004432 0.000820 0.000986 0.001782
0.575300 -0.000241 -0.000707 -0.004451 0.000820 0.000987 0.001783
0.578100 -0.000243 -0.000707 -0.004470 0.000821 0.000988 0.001784
0.580800 -0.000244 -0.000707 -0.004489 0.000821 0.000989 0.001785
0.583600 -0.000245 -0.000707 -0.004508 0.000822 0.000990 0.001786
0.586300 -0.000246 -0.000707 -0.004526 0.000822 0.000991 0.001787
0.589000 -0.000248 -0.000707 -0.004545 0.000823 0.000992 0.001788
0.591800 -0.000249 -0.000707 -0.004564 0.000823 0.000993 0.001790
0.594500 -0.000250 -0.000707 -0.004582 0.000824 0.000994 0.001791
0.597300 -0.000252 -0.000707 -0.004601 0.000824 0.000995 0.001792
0.608200 -0.000257 -0.000706 -0.004675 0.000826 0.000999 0.001796
0.611000 -0.000258 -0.000706 -0.004694 0.000826 0.001000 0.001797
0.613700 -0.000259 -0.000706 -0.004712 0.000827 0.001001 0.001798
0.616400 -0.000261 -0.000706 -0.004730 0.000827 0.001002 0.001799
0.619200 -0.000262 -0.000706 -0.004749 0.000828 0.001003 0.001800
0.621900 -0.000263 -0.000705 -0.004767 0.000828 0.001004 0.001801
0.624700 -0.000264 -0.000705 -0.004785 0.000829 0.001005 0.001802
0.627400 -0.000266 -0.000705 -0.004803 0.000829 0.001006 0.001803
0.630100 -0.000267 -0.000704 -0.004821 0.000830 0.001007 0.001804
0.632900 -0.000268 -0.000704 -0.004840 0.000830 0.001008 0.001806
0.635600 -0.000270 -0.000704 -0.004858 0.000831 0.001008 0.001807
0.638400 -0.000271 -0.000703 -0.004876 0.000831 0.001009 0.001808
0.641100 -0.000272 -0.000703 -0.004894 0.000832 0.001010 0.001809
0.643800 -0.000273 -0.000702 -0.004912 0.000832 0.001011 0.001810
0.646600 -0.000275 -0.000702 -0.004930 0.000833 0.001012 0.001811
0.649300 -0.000276 -0.000701 -0.004948 0.000833 0.001013 0.001812
0.652100 -0.000277 -0.000701 -0.004966 0.000834 0.001014 0.001813
0.654800 -0.000279 -0.000701 -0.004984 0.000834 0.001015 0.001814
0.657500 -0.000280 -0.000700 -0.005001 0.000835 0.001016 0.001815
0.660300 -0.000281 -0.000699 -0.005019 0.000835 0.001017 0.001816
0.663000 -0.000283 -0.000699 -0.005037 0.000836 0.001018 0.001817
0.665800 -0.000284 -0.000698 -0.005055 0.000836 0.001019 0.001818
0.668500 -0.000285 -0.000698 -0.005072 0.000837 0.001020 0.001819
0.671200 -0.000286 -0.000697 -0.005090 0.000837 0.001021 0.001820
0.674000 -0.000288 -0.000697 -0.005108 0.000837 0.001022 0.001821
0.676700 -0.000289 -0.000696 -0.005125 0.000838 0.001023 0.001822
0.679500 -0.000290 -0.000695 -0.005143 0.000838 0.001024 0.001823
0.682200 -0.000292 -0.000695 -0.005160 0.000839 0.001025 0.001823
0.684900 -0.000293 -0.000694 -0.005177 0.000839 0.001025 0.001824
0.687700 -0.000294 -0.000693 -0.005195 0.000840 0.001026 0.001825
0.690400 -0.000296 -0.000692 -0.005212 0.000840 0.001027 0.001826
0.693200 -0.000297 -0.000692 -0.005230 0.000841 0.001028 0.001827
0.695900 -0.000298 -0.000691 -0.005247 0.000841 0.001029 0.001828
0.698600 -0.000300 -0.000690 -0.005264 0.000842 0.001030 0.001829
0.701400 -0.000301 -0.000689 -0.005281 0.000842 0.001031 0.001830
0.704100 -0.000302 -0.000689 -0.005298 0.000843 0.001032 0.001831
0.706900 -0.000304 -0.000688 -0.005316 0.000843 0.001033 0.001832
0.709600 -0.000305 -0.000687 -0.005333 0.000844 0.001034 0.001833
0.712300 -0.000306 -0.000686 -0.005350 0.000844 0.001035 0.001834
0.715100 -0.000307 -0.000685 -0.005367 0.000845 0.001036 0.001835
0.717800 -0.000309 -0.000684 -0.005384 0.000845 0.001036 0.001836
0.720600 -0.000310 -0.000683 -0.005401 0.000846 0.001037 0.001836
0.723300 -0.000311 -0.000682 -0.005418 0.000846 0.001038 0.001837
0.726000 -0.000313 -0.000682 -0.005434 0.000847 0.001039 0.001838
0.728800 -0.000314 -0.000681 -0.005452 0.000847 0.001040 0.001839
0.731500 -0.000315 -0.000680 -0.005468 0.000848 0.001041 0.001840
0.734300 -0.000317 -0.000679 -0.005485 0.000848 0.001042 0.001841
0.737000 -0.000318 -0.000678 -0.005502 0.000849 0.001043 0.001842
0.739700 -0.000319 -0.000677 -0.005518 0.000849 0.001044 0.001843
0.742500 -0.000321 -0.000676 -0.005535 0.000850 0.001045 0.001844
0.745200 -0.000322 -0.000675 -0.005552 0.000850 0.001046 0.001844
0.747900 -0.000323 -0.000674 -0.005568 0.000850 0.001046 0.001845
0.750700 -0.000325 -0.000672 -0.005585 0.000851 0.001047 0.001846
0.753400 -0.000326 -0.000671 -0.005601 0.000851 0.001048 0.001847
0.756200 -0.000327 -0.000670 -0.005618 0.000852 0.001049 0.001848
0.758900 -0.000328 -0.000669 -0.005634 0.000852 0.001050 0.001849
0.761600 -0.000330 -0.000668 -0.005650 0.000853 0.001051 0.001850
0.764400 -0.000331 -0.000667 -0.005667 0.000853 0.001052 0.001850
0.767100 -0.000332 -0.000666 -0.005683 0.000854 0.001053 0.001851
0.769900 -0.000334 -0.000665 -0.005700 0.000854 0.001053 0.001852
0.772600 -0.000335 -0.000663 -0.005716 0.000855 0.001054 0.001853
0.775300 -0.000336 -0.000662 -0.005732 0.000855 0.001055 0.001854
0.778100 -0.000338 -0.000661 -0.005748 0.000856 0.001056 0.001855
0.780800 -0.000339 -0.000660 -0.005764 0.000856 0.001057 0.001855
0.783600 -0.000340 -0.000659 -0.005780 0.000857 0.001058 0.001856
0.786300 -0.000342 -0.000657 -0.005796 0.000857 0.001059 0.001857
0.789000 -0.000343 -0.000656 -0.005812 0.000858 0.001060 0.001858
0.791800 -0.000344 -0.000655 -0.005828 0.000858 0.001060 0.001859
0.794500 -0.000346 -0.000654 -0.005844 0.000859 0.001061 0.001859
0.797300 -0.000347 -0.000652 -0.005860 0.000859 0.001062 0.001860
0.800000 -0.000348 -0.000651 -0.005876 0.000860 0.001063 0.001861
0.802700 -0.000350 -0.000650 -0.005891 0.000860 0.001064 0.001862
0.805500 -0.000351 -0.000648 -0.005908 0.000861 0.001065 0.001863
0.808200 -0.000352 -0.000647 -0.005923 0.000861 0.001066 0.001863
0.811000 -0.000354 -0.000646 -0.005939 0.000862 0.001066 0.001864
0.813700 -0.000355 -0.000644 -0.005954 0.000862 0.001067 0.001865
0.816400 -0.000356 -0.000643 -0.005970 0.000863 0.001068 0.001866
0.819200 -0.000358 -0.000641 -0.005986 0.000863 0.001069 0.001867
0.821900 -0.000359 -0.000640 -0.006001 0.000864 0.001070 0.001867
0.824700 -0.000360 -0.000639 -0.006017 0.000864 0.001071 0.001868
0.827400 -0.000362 -0.000637 -0.006032 0.000865 0.001071 0.001869
0.830100 -0.000363 -0.000636 -0.006047 0.000865 0.001072 0.001870
0.832900 -0.000364 -0.000634 -0.006063 0.000866 0.001073 0.001871
0.835600 -0.000366 -0.000633 -0.006078 0.000866 0.001074 0.001871
0.838400 -0.000367 -0.000631 -0.006094 0.000867 0.001075 0.001872
0.841100 -0.000368 -0.000630 -0.006109 0.000867 0.001076 0.001873
0.843800 -0.000369 -0.000628 -0.006124 0.000867 0.001076 0.001874
0.846600 -0.000371 -0.000627 -0.006139 0.000868 0.001077 0.001874
0.849300 -0.000372 -0.000625 -0.006154 0.000868 0.001078 0.001875
0.852100 -0.000374 -0.000624 -0.006170 0.000869 0.001079 0.001876
0.854800 -0.000375 -0.000622 -0.006185 0.000869 0.001080 0.001877
0.857500 -0.000376 -0.000621 -0.006199 0.000870 0.001080 0.001877
0.860300 -0.000378 -0.000619 -0.006215 0.000870 0.001081 0.001878
0.863000 -0.000379 -0.000617 -0.006229 0.000871 0.001082 0.001879
0.865800 -0.000380 -0.000616 -0.006245 0.000871 0.001083 0.001880
0.868500 -0.000381 -0.000614 -0.006259 0.000872 0.001084 0.001880
0.871200 -0.000383 -0.000613 -0.006274 0.000872 0.001084 0.001881
0.912300 -0.000403 -0.000587 -0.006492 0.000880 0.001096 0.001892
