# time (yr) north(m) east(m) up(m) northsigma(m) eastsigma(m) upsigma(m)
0.000000 0.000000 0.000000 0.000000 0.001401 0.001264 0.001389
0.002700 -0.000006 -0.000012 -0.000033 0.001401 0.001268 0.001390
0.005500 -0.000011 -0.000023 -0.000068 0.001401 0.001279 0.001393
0.008200 -0.000017 -0.000034 -0.000103 0.001402 0.001296 0.001396
0.011000 -0.000022 -0.000045 -0.000138 0.001403 0.001319 0.001402
0.013700 -0.000028 -0.000056 -0.000173 0.001404 0.001345 0.001408
0.016400 -0.000033 -0.000067 -0.000209 0.001405 0.001373 0.001416
0.019200 -0.000038 -0.000077 -0.000246 0.001406 0.001405 0.001425
0.021900 -0.000043 -0.000088 -0.000281 0.001407 0.001436 0.001435
0.024700 -0.000048 -0.000098 -0.000319 0.001409 0.001470 0.001446
0.027400 -0.000053 -0.000108 -0.000355 0.001411 0.001502 0.001458
0.030100 -0.000057 -0.000119 -0.000391 0.001413 0.001534 0.001470
0.032900 -0.000062 -0.000129 -0.000429 0.001415 0.001567 0.001483
0.035600 -0.000067 -0.000139 -0.000465 0.001418 0.001597 0.001497
0.038400 -0.000071 -0.000149 -0.000503 0.001420 0.001629 0.001512
0.041100 -0.000075 -0.000159 -0.000540 0.001423 0.001658 0.001527
0.043800 -0.000080 -0.000169 -0.000577 0.001425 0.001685 0.001542
0.046600 -0.000084 -0.000179 -0.000615 0.001428 0.001713 0.001558
0.049300 -0.000088 -0.000188 -0.000652 0.001431 0.001739 0.001574
0.052100 -0.000093 -0.000198 -0.000690 0.001435 0.001764 0.001591
0.054800 -0.000097 -0.000208 -0.000727 0.001438 0.001787 0.001608
0.057500 -0.000101 -0.000217 -0.000764 0.001441 0.001809 0.001625
0.060300 -0.000105 -0.000227 -0.000802 0.001445 0.001831 0.001642
0.063000 -0.000109 -0.000236 -0.000839 0.001448 0.001850 0.001660
0.065800 -0.000112 -0.000245 -0.000878 0.001452 0.001870 0.001677
0.068500 -0.000116 -0.000254 -0.000914 0.001456 0.001887 0.001695
0.071200 -0.000120 -0.000263 -0.000951 0.001460 0.001903 0.001712
0.074000 -0.000124 -0.000273 -0.000989 0.001464 0.001919 0.001730
0.076700 -0.000127 -0.000281 -0.001026 0.001468 0.001933 0.001748
0.079500 -0.000131 -0.000291 -0.001064 0.001472 0.001947 0.001766
0.082200 -0.000135 -0.000299 -0.001101 0.001476 0.001960 0.001784
0.084900 -0.000138 -0.000308 -0.001137 0.001481 0.001971 0.001801
0.087700 -0.000142 -0.000317 -0.001175 0.001485 0.001982 0.001819
0.090400 -0.000145 -0.000325 -0.001211 0.001490 0.001992 0.001837
0.093200 -0.000149 -0.000334 -0.001249 0.001494 0.002001 0.001854
0.095900 -0.000152 -0.000342 -0.001285 0.001499 0.002010 0.001872
0.098600 -0.000155 -0.000350 -0.001321 0.001503 0.002017 0.001889
0.101400 -0.000158 -0.000359 -0.001358 0.001508 0.002025 0.001906
0.104100 -0.000162 -0.000367 -0.001394 0.001513 0.002031 0.001923
0.106900 -0.000165 -0.000375 -0.001431 0.001518 0.002037 0.001940
0.109600 -0.000168 -0.000383 -0.001466 0.001522 0.002042 0.001956
0.112300 -0.000171 -0.000391 -0.001502 0.001527 0.002047 0.001973
0.115100 -0.000174 -0.000399 -0.001539 0.001532 0.002051 0.001989
0.117800 -0.000177 -0.000407 -0.001574 0.001537 0.002055 0.002005
0.120600 -0.000180 -0.000415 -0.001610 0.001542 0.002058 0.002022
0.123300 -0.000183 -0.000422 -0.001645 0.001547 0.002061 0.002037
0.126000 -0.000186 -0.000430 -0.001680 0.001552 0.002063 0.002052
0.128800 -0.000188 -0.000438 -0.001716 0.001557 0.002065 0.002068
0.131500 -0.000191 -0.000445 -0.001751 0.001562 0.002067 0.002083
0.134300 -0.000194 -0.000453 -0.001787 0.001567 0.002068 0.002098
0.137000 -0.000197 -0.000460 -0.001821 0.001572 0.002069 0.002113
0.139700 -0.000199 -0.000467 -0.001855 0.001577 0.002070 0.002127
0.142500 -0.000202 -0.000475 -0.001891 0.001582 0.002070 0.002141
0.145200 -0.000204 -0.000482 -0.001925 0.001587 0.002070 0.002155
0.147900 -0.000207 -0.000489 -0.001959 0.001592 0.002070 0.002169
0.150700 -0.000209 -0.000496 -0.001994 0.001597 0.002069 0.002183
0.153400 -0.000212 -0.000503 -0.002027 0.001602 0.002069 0.002196
0.156200 -0.000214 -0.000510 -0.002062 0.001607 0.002068 0.002209
0.158900 -0.000217 -0.000517 -0.002095 0.001612 0.002067 0.002222
0.161600 -0.000219 -0.000523 -0.002129 0.001617 0.002065 0.002234
0.164400 -0.000221 -0.000530 -0.002163 0.001622 0.002064 0.002247
0.167100 -0.000223 -0.000537 -0.002196 0.001627 0.002062 0.002259
0.169900 -0.000226 -0.000544 -0.002230 0.001632 0.002060 0.002271
0.172600 -0.000228 -0.000550 -0.002263 0.001637 0.002058 0.002282
0.175300 -0.000230 -0.000556 -0.002295 0.001642 0.002056 0.002293
0.178100 -0.000232 -0.000563 -0.002329 0.001647 0.002054 0.002305
0.180800 -0.000234 -0.000569 -0.002361 0.001652 0.002052 0.002315
0.183600 -0.000236 -0.000576 -0.002394 0.001657 0.002050 0.002326
0.186300 -0.000238 -0.000582 -0.002426 0.001661 0.002047 0.002336
0.189000 -0.000240 -0.000588 -0.002458 0.001666 0.002045 0.002346
0.191800 -0.000242 -0.000594 -0.002491 0.001671 0.002042 0.002357
0.194500 -0.000244 -0.000600 -0.002523 0.001676 0.002039 0.002366
0.197300 -0.000246 -0.000607 -0.002556 0.001681 0.002036 0.002376
0.200000 -0.000247 -0.000613 -0.002587 0.001685 0.002033 0.002385
0.202700 -0.000249 -0.000618 -0.002618 0.001690 0.002031 0.002393
0.205500 -0.000251 -0.000624 -0.002650 0.001694 0.002027 0.002402
0.208200 -0.000252 -0.000630 -0.002681 0.001699 0.002024 0.002411
0.211000 -0.000254 -0.000636 -0.002714 0.001704 0.002021 0.002419
0.213700 -0.000256 -0.000642 -0.002744 0.001708 0.002018 0.002427
0.216400 -0.000257 -0.000647 -0.002775 0.001712 0.002015 0.002435
0.219200 -0.000259 -0.000653 -0.002807 0.001717 0.002012 0.002442
0.221900 -0.000260 -0.000659 -0.002837 0.001721 0.002009 0.002450
0.224700 -0.000262 -0.000665 -0.002868 0.001726 0.002006 0.002457
0.227400 -0.000263 -0.000670 -0.002898 0.001730 0.002002 0.002464
0.230100 -0.000264 -0.000675 -0.002928 0.001734 0.001999 0.002470
0.232900 -0.000266 -0.000681 -0.002959 0.001739 0.001996 0.002477
0.235600 -0.000267 -0.000686 -0.002989 0.001743 0.001993 0.002483
0.238400 -0.000268 -0.000692 -0.003020 0.001747 0.001989 0.002489
0.241100 -0.000269 -0.000697 -0.003050 0.001751 0.001986 0.002495
0.243800 -0.000270 -0.000702 -0.003079 0.001755 0.001983 0.002500
0.246600 -0.000272 -0.000707 -0.003109 0.001759 0.001980 0.002506
0.249300 -0.000273 -0.000713 -0.003139 0.001763 0.001976 0.002511
0.252100 -0.000274 -0.000718 -0.003169 0.001767 0.001973 0.002516
0.254800 -0.000275 -0.000723 -0.003198 0.001771 0.001970 0.002520
0.257500 -0.000276 -0.000728 -0.003227 0.001775 0.001967 0.002525
0.260300 -0.000277 -0.000733 -0.003256 0.001778 0.001963 0.002529
0.263000 -0.000278 -0.000738 -0.003285 0.001782 0.001960 0.002533
0.265800 -0.000279 -0.000743 -0.003315 0.001786 0.001957 0.002538
0.268500 -0.000279 -0.000748 -0.003343 0.001789 0.001954 0.002541
0.271200 -0.000280 -0.000752 -0.003371 0.001793 0.001951 0.002545
0.274000 -0.000281 -0.000757 -0.003401 0.001797 0.001947 0.002548
0.276700 -0.000282 -0.000762 -0.003429 0.001800 0.001944 0.002551
0.279500 -0.000282 -0.000767 -0.003458 0.001804 0.001941 0.002555
0.282200 -0.000283 -0.000772 -0.003486 0.001807 0.001938 0.002557
0.284900 -0.000284 -0.000776 -0.003514 0.001810 0.001935 0.002560
0.287700 -0.000284 -0.000781 -0.003542 0.001814 0.001932 0.002563
0.290400 -0.000285 -0.000786 -0.003570 0.001817 0.001929 0.002565
0.293200 -0.000286 -0.000790 -0.003599 0.001820 0.001926 0.002567
0.295900 -0.000286 -0.000795 -0.003626 0.001823 0.001923 0.002569
0.298600 -0.000286 -0.000799 -0.003653 0.001826 0.001920 0.002571
0.301400 -0.000287 -0.000804 -0.003682 0.001830 0.001917 0.002572
0.304100 -0.000287 -0.000808 -0.003709 0.001833 0.001914 0.002574
0.306900 -0.000288 -0.000813 -0.003737 0.001836 0.001911 0.002575
0.309600 -0.000288 -0.000817 -0.003764 0.001839 0.001908 0.002577
0.312300 -0.000288 -0.000821 -0.003791 0.001841 0.001905 0.002578
0.315100 -0.000289 -0.000826 -0.003818 0.001844 0.001903 0.002578
0.317800 -0.000289 -0.000830 -0.003845 0.001847 0.001900 0.002579
0.320600 -0.000289 -0.000834 -0.003873 0.001850 0.001897 0.002580
0.323300 -0.000289 -0.000838 -0.003899 0.001853 0.001894 0.002580
0.326000 -0.000289 -0.000843 -0.003926 0.001855 0.001891 0.002581
0.328800 -0.000289 -0.000847 -0.003953 0.001858 0.001889 0.002581
0.331500 -0.000290 -0.000851 -0.003979 0.001860 0.001886 0.002581
0.334300 -0.000290 -0.000855 -0.004006 0.001863 0.001883 0.002581
0.337000 -0.000290 -0.000859 -0.004032 0.001865 0.001881 0.002580
0.339700 -0.000290 -0.000863 -0.004058 0.001868 0.001878 0.002580
0.342500 -0.000290 -0.000867 -0.004085 0.001870 0.001875 0.002580
0.345200 -0.000289 -0.000871 -0.004111 0.001873 0.001873 0.002579
0.347900 -0.000289 -0.000875 -0.004137 0.001875 0.001870 0.002578
0.350700 -0.000289 -0.000879 -0.004164 0.001877 0.001868 0.002577
0.353400 -0.000289 -0.000883 -0.004189 0.001880 0.001865 0.002576
0.356200 -0.000289 -0.000887 -0.004216 0.001882 0.001863 0.002575
0.358900 -0.000288 -0.000891 -0.004241 0.001884 0.001860 0.002574
0.361600 -0.000288 -0.000895 -0.004267 0.001886 0.001858 0.002573
0.364400 -0.000288 -0.000899 -0.004293 0.001888 0.001856 0.002571
0.367100 -0.000288 -0.000903 -0.004318 0.001890 0.001853 0.002570
0.369900 -0.000287 -0.000907 -0.004344 0.001892 0.001851 0.002568
0.372600 -0.000287 -0.000910 -0.004370 0.001894 0.001849 0.002567
0.375300 -0.000286 -0.000914 -0.004395 0.001896 0.001846 0.002565
0.378100 -0.000286 -0.000918 -0.004421 0.001898 0.001844 0.002563
0.380800 -0.000285 -0.000922 -0.004446 0.001900 0.001842 0.002561
0.383600 -0.000285 -0.000925 -0.004471 0.001901 0.001839 0.002559
0.386300 -0.000284 -0.000929 -0.004496 0.001903 0.001837 0.002556
0.389000 -0.000284 -0.000933 -0.004521 0.001905 0.001835 0.002554
0.391800 -0.000283 -0.000936 -0.004546 0.001907 0.001833 0.002552
0.394500 -0.000282 -0.000940 -0.004571 0.001908 0.001831 0.002549
0.397300 -0.000282 -0.000944 -0.004596 0.001910 0.001829 0.002547
0.402700 -0.000280 -0.000951 -0.004645 0.001913 0.001825 0.002541
0.405500 -0.000280 -0.000954 -0.004671 0.001914 0.001822 0.002538
0.408200 -0.000279 -0.000958 -0.004695 0.001916 0.001820 0.002535
0.411000 -0.000278 -0.000961 -0.004720 0.001917 0.001818 0.002532
0.413700 -0.000277 -0.000965 -0.004744 0.001919 0.001816 0.002529
0.416400 -0.000276 -0.000968 -0.004768 0.001920 0.001814 0.002526
0.419200 -0.000275 -0.000972 -0.004793 0.001921 0.001812 0.002523
0.421900 -0.000274 -0.000975 -0.004817 0.001923 0.001811 0.002520
0.424700 -0.000273 -0.000979 -0.004842 0.001924 0.001809 0.002517
0.427400 -0.000272 -0.000982 -0.004866 0.001925 0.001807 0.002513
0.430100 -0.000271 -0.000985 -0.004890 0.001926 0.001805 0.002510
0.432900 -0.000270 -0.000989 -0.004915 0.001927 0.001803 0.002506
0.435600 -0.000269 -0.000992 -0.004938 0.001929 0.001801 0.002503
0.438400 -0.000268 -0.000996 -0.004963 0.001930 0.001799 0.002499
0.441100 -0.000267 -0.000999 -0.004987 0.001931 0.001798 0.002495
0.443800 -0.000266 -0.001002 -0.005010 0.001932 0.001796 0.002492
0.446600 -0.000264 -0.001006 -0.005035 0.001933 0.001794 0.002488
0.449300 -0.000263 -0.001009 -0.005058 0.001934 0.001792 0.002484
0.452100 -0.000262 -0.001012 -0.005083 0.001935 0.001791 0.002480
0.454800 -0.000261 -0.001015 -0.005106 0.001936 0.001789 0.002476
0.457500 -0.000259 -0.001019 -0.005129 0.001936 0.001787 0.002472
0.460300 -0.000258 -0.001022 -0.005153 0.001937 0.001786 0.002468
0.463000 -0.000257 -0.001025 -0.005177 0.001938 0.001784 0.002464
0.465800 -0.000255 -0.001029 -0.005201 0.001939 0.001782 0.002460
0.468500 -0.000254 -0.001032 -0.005224 0.001940 0.001781 0.002456
0.471200 -0.000252 -0.001035 -0.005247 0.001940 0.001779 0.002452
0.474000 -0.000251 -0.001038 -0.005271 0.001941 0.001778 0.002447
0.476700 -0.000249 -0.001041 -0.005294 0.001942 0.001776 0.002443
0.479500 -0.000248 -0.001044 -0.005318 0.001943 0.001774 0.002439
0.482200 -0.000246 -0.001048 -0.005341 0.001943 0.001773 0.002434
0.484900 -0.000244 -0.001051 -0.005364 0.001944 0.001771 0.002430
0.487700 -0.000243 -0.001054 -0.005388 0.001944 0.001770 0.002426
0.490400 -0.000241 -0.001057 -0.005410 0.001945 0.001769 0.002421
0.493200 -0.000239 -0.001060 -0.005434 0.001945 0.001767 0.002417
0.495900 -0.000238 -0.001063 -0.005457 0.001946 0.001766 0.002412
0.498600 -0.000236 -0.001066 -0.005480 0.001946 0.001764 0.002408
0.501400 -0.000234 -0.001069 -0.005503 0.001947 0.001763 0.002403
0.504100 -0.000232 -0.001072 -0.005526 0.001947 0.001761 0.002399
0.506900 -0.000231 -0.001076 -0.005549 0.001948 0.001760 0.002394
0.509600 -0.000229 -0.001079 -0.005572 0.001948 0.001759 0.002389
0.512300 -0.000227 -0.001082 -0.005594 0.001949 0.001757 0.002385
0.517800 -0.000223 -0.001088 -0.005640 0.001949 0.001755 0.002376
0.520600 -0.000221 -0.001091 -0.005663 0.001950 0.001754 0.002371
0.523300 -0.000219 -0.001094 -0.005686 0.001950 0.001752 0.002366
0.528800 -0.000215 -0.001100 -0.005731 0.001950 0.001750 0.002357
0.531500 -0.000213 -0.001103 -0.005753 0.001951 0.001749 0.002352
0.534300 -0.000211 -0.001106 -0.005777 0.001951 0.001747 0.002347
0.537000 -0.000209 -0.001109 -0.005799 0.001951 0.001746 0.002343
0.539700 -0.000206 -0.001112 -0.005821 0.001951 0.001745 0.002338
0.547900 -0.000200 -0.001120 -0.005888 0.001952 0.001742 0.002324
0.550700 -0.000198 -0.001124 -0.005911 0.001952 0.001740 0.002319
0.553400 -0.000195 -0.001126 -0.005933 0.001952 0.001739 0.002314
0.556200 -0.000193 -0.001129 -0.005956 0.001952 0.001738 0.002309
0.558900 -0.000191 -0.001132 -0.005978 0.001952 0.001737 0.002304
0.561600 -0.000188 -0.001135 -0.006000 0.001952 0.001736 0.002300
0.564400 -0.000186 -0.001138 -0.006022 0.001952 0.001735 0.002295
0.567100 -0.000183 -0.001141 -0.006044 0.001952 0.001734 0.002290
0.569900 -0.000181 -0.001144 -0.006067 0.001952 0.001733 0.002285
0.572600 -0.000179 -0.001147 -0.006089 0.001952 0.001732 0.002280
0.575300 -0.000176 -0.001150 -0.006111 0.001952 0.001731 0.002276
0.578100 -0.000173 -0.001153 -0.006133 0.001952 0.001730 0.002271
0.580800 -0.000171 -0.001155 -0.006155 0.001952 0.001729 0.002266
0.583600 -0.000168 -0.001158 -0.006177 0.001952 0.001728 0.002261
0.586300 -0.000166 -0.001161 -0.006199 0.001952 0.001727 0.002256
0.589000 -0.000163 -0.001164 -0.006221 0.001952 0.001726 0.002252
0.591800 -0.000160 -0.001167 -0.006243 0.001952 0.001725 0.002247
0.594500 -0.000158 -0.001170 -0.006265 0.001951 0.001724 0.002242
0.597300 -0.000155 -0.001173 -0.006287 0.001951 0.001724 0.002237
0.600000 -0.000152 -0.001175 -0.006309 0.001951 0.001723 0.002233
0.602700 -0.000150 -0.001178 -0.006330 0.001951 0.001722 0.002228
0.605500 -0.000147 -0.001181 -0.006353 0.001951 0.001721 0.002223
0.608200 -0.000144 -0.001184 -0.006374 0.001951 0.001720 0.002218
0.611000 -0.000141 -0.001187 -0.006396 0.001950 0.001719 0.002214
0.613700 -0.000138 -0.001190 -0.006418 0.001950 0.001719 0.002209
0.616400 -0.000136 -0.001192 -0.006439 0.001950 0.001718 0.002205
0.619200 -0.000133 -0.001195 -0.006461 0.001950 0.001717 0.002200
0.621900 -0.000130 -0.001198 -0.006483 0.001950 0.001716 0.002195
0.624700 -0.000127 -0.001201 -0.006505 0.001949 0.001715 0.002190
0.627400 -0.000124 -0.001204 -0.006526 0.001949 0.001715 0.002186
0.630100 -0.000121 -0.001207 -0.006548 0.001949 0.001714 0.002181
0.632900 -0.000118 -0.001209 -0.006570 0.001948 0.001713 0.002177
0.635600 -0.000115 -0.001212 -0.006591 0.001948 0.001712 0.002172
0.638400 -0.000112 -0.001215 -0.006613 0.001948 0.001712 0.002168
0.641100 -0.000108 -0.001218 -0.006634 0.001948 0.001711 0.002163
0.643800 -0.000105 -0.001221 -0.006655 0.001947 0.001710 0.002159
0.646600 -0.000102 -0.001223 -0.006677 0.001947 0.001710 0.002154
0.649300 -0.000099 -0.001226 -0.006698 0.001947 0.001709 0.002150
0.652100 -0.000096 -0.001229 -0.006720 0.001946 0.001708 0.002145
0.654800 -0.000093 -0.001232 -0.006741 0.001946 0.001708 0.002141
0.657500 -0.000089 -0.001234 -0.006762 0.001945 0.001707 0.002137
0.660300 -0.000086 -0.001237 -0.006784 0.001945 0.001707 0.002132
0.663000 -0.000083 -0.001240 -0.006805 0.001945 0.001706 0.002128
0.665800 -0.000079 -0.001243 -0.006827 0.001944 0.001705 0.002123
0.668500 -0.000076 -0.001246 -0.006848 0.001944 0.001705 0.002119
0.671200 -0.000073 -0.001248 -0.006869 0.001944 0.001704 0.002115
0.674000 -0.000069 -0.001251 -0.006891 0.001943 0.001704 0.002111
0.676700 -0.000066 -0.001254 -0.006912 0.001943 0.001703 0.002106
0.679500 -0.000063 -0.001257 -0.006933 0.001942 0.001702 0.002102
0.682200 -0.000059 -0.001259 -0.006954 0.001942 0.001702 0.002098
0.684900 -0.000056 -0.001262 -0.006975 0.001941 0.001701 0.002094
0.687700 -0.000052 -0.001265 -0.006997 0.001941 0.001701 0.002090
0.690400 -0.000049 -0.001268 -0.007018 0.001941 0.001700 0.002086
0.693200 -0.000045 -0.001271 -0.007039 0.001940 0.001700 0.002081
0.695900 -0.000041 -0.001273 -0.007060 0.001940 0.001699 0.002077
0.698600 -0.000038 -0.001276 -0.007081 0.001939 0.001699 0.002073
0.701400 -0.000034 -0.001279 -0.007102 0.001939 0.001698 0.002069
0.704100 -0.000031 -0.001282 -0.007123 0.001938 0.001698 0.002065
0.706900 -0.000027 -0.001284 -0.007145 0.001938 0.001698 0.002061
0.709600 -0.000023 -0.001287 -0.007165 0.001937 0.001697 0.002058
0.712300 -0.000020 -0.001290 -0.007186 0.001937 0.001697 0.002054
0.715100 -0.000016 -0.001293 -0.007208 0.001936 0.001696 0.002050
0.717800 -0.000012 -0.001295 -0.007228 0.001936 0.001696 0.002046
0.720600 -0.000008 -0.001298 -0.007250 0.001935 0.001695 0.002042
0.723300 -0.000004 -0.001301 -0.007270 0.001935 0.001695 0.002038
0.726000 -0.000001 -0.001304 -0.007291 0.001934 0.001695 0.002035
0.728800 0.000003 -0.001306 -0.007312 0.001934 0.001694 0.002031
0.731500 0.000007 -0.001309 -0.007333 0.001933 0.001694 0.002027
0.734300 0.000011 -0.001312 -0.007354 0.001933 0.001694 0.002024
0.737000 0.000015 -0.001315 -0.007375 0.001932 0.001693 0.002020
0.739700 0.000019 -0.001317 -0.007395 0.001932 0.001693 0.002016
0.742500 0.000023 -0.001320 -0.007416 0.001931 0.001693 0.002013
0.745200 0.000027 -0.001323 -0.007437 0.001930 0.001692 0.002009
0.747900 0.000031 -0.001326 -0.007457 0.001930 0.001692 0.002006
0.750700 0.000035 -0.001328 -0.007479 0.001929 0.001692 0.002002
0.753400 0.000039 -0.001331 -0.007499 0.001929 0.001691 0.001999
0.756200 0.000043 -0.001334 -0.007520 0.001928 0.001691 0.001995
0.758900 0.000047 -0.001337 -0.007540 0.001928 0.001691 0.001992
0.761600 0.000051 -0.001339 -0.007561 0.001927 0.001690 0.001989
0.764400 0.000055 -0.001342 -0.007582 0.001927 0.001690 0.001985
0.767100 0.000059 -0.001345 -0.007602 0.001926 0.001690 0.001982
0.769900 0.000064 -0.001348 -0.007623 0.001925 0.001690 0.001979
0.772600 0.000068 -0.001350 -0.007644 0.001925 0.001689 0.001976
0.775300 0.000072 -0.001353 -0.007664 0.001924 0.001689 0.001973
0.778100 0.000076 -0.001356 -0.007685 0.001924 0.001689 0.001969
0.780800 0.000080 -0.001359 -0.007705 0.001923 0.001689 0.001966
0.783600 0.000085 -0.001361 -0.007726 0.001922 0.001688 0.001963
0.786300 0.000089 -0.001364 -0.007747 0.001922 0.001688 0.001960
0.789000 0.000093 -0.001367 -0.007767 0.001921 0.001688 0.001957
0.791800 0.000098 -0.001370 -0.007788 0.001921 0.001688 0.001954
0.794500 0.000102 -0.001372 -0.007808 0.001920 0.001687 0.001951
0.797300 0.000107 -0.001375 -0.007829 0.001920 0.001687 0.001948
0.800000 0.000111 -0.001378 -0.007849 0.001919 0.001687 0.001945
0.802700 0.000115 -0.001381 -0.007869 0.001918 0.001687 0.001942
0.805500 0.000120 -0.001384 -0.007890 0.001918 0.001687 0.001940
0.808200 0.000124 -0.001386 -0.007910 0.001917 0.001687 0.001937
0.811000 0.000129 -0.001389 -0.007931 0.001917 0.001686 0.001934
0.813700 0.000133 -0.001392 -0.007951 0.001916 0.001686 0.001931
0.816400 0.000138 -0.001395 -0.007971 0.001915 0.001686 0.001929
0.819200 0.000142 -0.001397 -0.007992 0.001915 0.001686 0.001926
0.821900 0.000147 -0.001400 -0.008012 0.001914 0.001686 0.001923
0.824700 0.000152 -0.001403 -0.008033 0.001914 0.001686 0.001921
0.827400 0.000156 -0.001406 -0.008053 0.001913 0.001686 0.001918
0.830100 0.000161 -0.001408 -0.008072 0.001912 0.001685 0.001915
0.832900 0.000165 -0.001411 -0.008093 0.001912 0.001685 0.001913
0.835600 0.000170 -0.001414 -0.008113 0.001911 0.001685 0.001910
0.838400 0.000175 -0.001417 -0.008134 0.001910 0.001685 0.001908
