# time (yr) north(m) east(m) up(m) northsigma(m) eastsigma(m) upsigma(m)
0.000000 0.000000 0.000000 0.000000 0.001876 0.001037 0.000935
0.002700 -0.000121 0.000000 0.000002 0.001878 0.001043 0.000935
0.005500 -0.000243 0.000001 0.000004 0.001885 0.001060 0.000935
0.008200 -0.000359 0.000002 0.000007 0.001894 0.001082 0.000935
0.011000 -0.000476 0.000003 0.000010 0.001908 0.001107 0.000936
0.013700 -0.000587 0.000004 0.000013 0.001923 0.001133 0.000936
0.016400 -0.000696 0.000006 0.000016 0.001941 0.001159 0.000937
0.019200 -0.000807 0.000008 0.000019 0.001962 0.001185 0.000938
0.021900 -0.000912 0.000010 0.000022 0.001983 0.001209 0.000939
0.024700 -0.001018 0.000012 0.000025 0.002006 0.001233 0.000940
0.027400 -0.001119 0.000014 0.000028 0.002030 0.001255 0.000941
0.030100 -0.001218 0.000017 0.000031 0.002054 0.001275 0.000942
0.032900 -0.001318 0.000019 0.000034 0.002080 0.001295 0.000943
0.035600 -0.001413 0.000022 0.000037 0.002105 0.001313 0.000944
0.038400 -0.001510 0.000024 0.000041 0.002130 0.001330 0.000946
0.041100 -0.001602 0.000027 0.000044 0.002155 0.001346 0.000948
0.043800 -0.001692 0.000030 0.000047 0.002180 0.001360 0.000949
0.046600 -0.001784 0.000032 0.000050 0.002205 0.001374 0.000951
0.049300 -0.001871 0.000035 0.000053 0.002229 0.001387 0.000953
0.052100 -0.001959 0.000038 0.000056 0.002254 0.001400 0.000955
0.054800 -0.002043 0.000041 0.000059 0.002277 0.001411 0.000957
0.057500 -0.002126 0.000043 0.000062 0.002299 0.001422 0.000959
0.060300 -0.002210 0.000046 0.000066 0.002322 0.001433 0.000961
0.063000 -0.002289 0.000049 0.000069 0.002343 0.001442 0.000964
0.065800 -0.002370 0.000052 0.000072 0.002365 0.001452 0.000966
0.068500 -0.002447 0.000055 0.000075 0.002385 0.001461 0.000969
0.071200 -0.002523 0.000058 0.000078 0.002405 0.001469 0.000971
0.074000 -0.002600 0.000061 0.000082 0.002424 0.001478 0.000974
0.076700 -0.002674 0.000064 0.000085 0.002443 0.001485 0.000977
0.079500 -0.002748 0.000066 0.000088 0.002461 0.001493 0.000979
0.082200 -0.002819 0.000069 0.000092 0.002478 0.001500 0.000982
0.084900 -0.002889 0.000072 0.000095 0.002495 0.001507 0.000985
0.087700 -0.002960 0.000075 0.000098 0.002512 0.001514 0.000988
0.090400 -0.003028 0.000078 0.000101 0.002527 0.001521 0.000992
0.093200 -0.003097 0.000081 0.000105 0.002543 0.001527 0.000995
0.095900 -0.003162 0.000084 0.000108 0.002557 0.001533 0.000998
0.098600 -0.003227 0.000086 0.000111 0.002571 0.001539 0.001001
0.101400 -0.003293 0.000089 0.000114 0.002585 0.001545 0.001005
0.104100 -0.003355 0.000092 0.000118 0.002598 0.001551 0.001008
0.106900 -0.003419 0.000095 0.000121 0.002611 0.001556 0.001012
0.109600 -0.003480 0.000098 0.000124 0.002623 0.001562 0.001016
0.112300 -0.003540 0.000100 0.000128 0.002635 0.001567 0.001020
0.115100 -0.003601 0.000103 0.000131 0.002647 0.001572 0.001023
0.117800 -0.003659 0.000106 0.000134 0.002658 0.001577 0.001027
0.120600 -0.003719 0.000109 0.000138 0.002669 0.001582 0.001031
0.123300 -0.003775 0.000112 0.000141 0.002679 0.001587 0.001035
0.126000 -0.003831 0.000114 0.000144 0.002689 0.001591 0.001039
0.128800 -0.003888 0.000117 0.000148 0.002699 0.001596 0.001044
0.131500 -0.003942 0.000120 0.000151 0.002708 0.001600 0.001048
0.134300 -0.003998 0.000123 0.000154 0.002718 0.001605 0.001052
0.137000 -0.004051 0.000126 0.000157 0.002727 0.001609 0.001057
0.139700 -0.004103 0.000128 0.000161 0.002735 0.001613 0.001061
0.142500 -0.004156 0.000131 0.000164 0.002743 0.001617 0.001066
0.145200 -0.004207 0.000134 0.000167 0.002751 0.001621 0.001070
0.147900 -0.004257 0.000137 0.000170 0.002759 0.001625 0.001075
0.150700 -0.004308 0.000139 0.000174 0.002767 0.001629 0.001079
0.153400 -0.004357 0.000142 0.000177 0.002774 0.001633 0.001084
0.156200 -0.004407 0.000145 0.000180 0.002781 0.001637 0.001089
0.158900 -0.004454 0.000147 0.000184 0.002788 0.001640 0.001094
0.161600 -0.004501 0.000150 0.000187 0.002795 0.001644 0.001099
0.164400 -0.004549 0.000153 0.000190 0.002801 0.001648 0.001104
0.167100 -0.004595 0.000156 0.000193 0.002807 0.001651 0.001108
0.169900 -0.004642 0.000158 0.000197 0.002813 0.001655 0.001114
0.172600 -0.004687 0.000161 0.000200 0.002819 0.001658 0.001119
0.175300 -0.004731 0.000164 0.000203 0.002825 0.001661 0.001124
0.178100 -0.004776 0.000167 0.000206 0.002830 0.001665 0.001129
0.180800 -0.004819 0.000169 0.000209 0.002836 0.001668 0.001134
0.183600 -0.004864 0.000172 0.000213 0.002841 0.001671 0.001140
0.186300 -0.004906 0.000175 0.000216 0.002846 0.001674 0.001145
0.189000 -0.004947 0.000177 0.000219 0.002851 0.001678 0.001150
0.191800 -0.004990 0.000180 0.000222 0.002855 0.001681 0.001156
0.194500 -0.005031 0.000183 0.000225 0.002860 0.001684 0.001161
0.197300 -0.005073 0.000185 0.000228 0.002864 0.001687 0.001167
0.200000 -0.005113 0.000188 0.000231 0.002869 0.001690 0.001172
0.202700 -0.005152 0.000191 0.000235 0.002873 0.001693 0.001178
0.205500 -0.005193 0.000193 0.000238 0.002877 0.001696 0.001183
0.208200 -0.005231 0.000196 0.000241 0.002881 0.001699 0.001189
0.211000 -0.005271 0.000199 0.000244 0.002884 0.001702 0.001195
0.213700 -0.005309 0.000201 0.000247 0.002888 0.001705 0.001200
0.216400 -0.005346 0.000204 0.000250 0.002891 0.001707 0.001206
0.219200 -0.005384 0.000207 0.000253 0.002895 0.001710 0.001212
0.221900 -0.005421 0.000209 0.000256 0.002898 0.001713 0.001218
0.224700 -0.005459 0.000212 0.000259 0.002901 0.001716 0.001224
0.227400 -0.005495 0.000215 0.000262 0.002904 0.001719 0.001229
0.230100 -0.005530 0.000217 0.000265 0.002907 0.001721 0.001235
0.232900 -0.005567 0.000220 0.000268 0.002910 0.001724 0.001241
0.235600 -0.005602 0.000223 0.000271 0.002913 0.001727 0.001247
0.238400 -0.005637 0.000226 0.000274 0.002915 0.001729 0.001253
0.241100 -0.005672 0.000228 0.000276 0.002918 0.001732 0.001259
0.243800 -0.005706 0.000231 0.000279 0.002920 0.001735 0.001265
0.246600 -0.005740 0.000233 0.000282 0.002923 0.001737 0.001271
0.249300 -0.005774 0.000236 0.000285 0.002925 0.001740 0.001277
0.252100 -0.005808 0.000239 0.000288 0.002927 0.001743 0.001283
0.254800 -0.005841 0.000241 0.000291 0.002929 0.001745 0.001289
0.257500 -0.005873 0.000244 0.000293 0.002931 0.001748 0.001295
0.260300 -0.005906 0.000247 0.000296 0.002933 0.001750 0.001301
0.263000 -0.005938 0.000249 0.000299 0.002935 0.001753 0.001307
0.265800 -0.005971 0.000252 0.000302 0.002936 0.001755 0.001314
0.268500 -0.006002 0.000255 0.000304 0.002938 0.001758 0.001320
0.271200 -0.006033 0.000257 0.000307 0.002939 0.001760 0.001326
0.274000 -0.006065 0.000260 0.000310 0.002941 0.001763 0.001332
0.276700 -0.006096 0.000263 0.000312 0.002942 0.001765 0.001338
0.279500 -0.006127 0.000266 0.000315 0.002944 0.001768 0.001344
0.282200 -0.006157 0.000268 0.000317 0.002945 0.001770 0.001351
0.284900 -0.006187 0.000271 0.000320 0.002946 0.001772 0.001357
0.287700 -0.006217 0.000274 0.000323 0.002947 0.001775 0.001363
0.290400 -0.006247 0.000276 0.000325 0.002948 0.001777 0.001369
0.293200 -0.006277 0.000279 0.000328 0.002949 0.001780 0.001375
0.295900 -0.006305 0.000282 0.000330 0.002950 0.001782 0.001382
0.298600 -0.006334 0.000284 0.000332 0.002951 0.001784 0.001388
0.301400 -0.006363 0.000287 0.000335 0.002951 0.001787 0.001394
0.304100 -0.006392 0.000290 0.000337 0.002952 0.001789 0.001400
0.306900 -0.006421 0.000292 0.000340 0.002953 0.001792 0.001406
0.309600 -0.006448 0.000295 0.000342 0.002953 0.001794 0.001413
0.312300 -0.006476 0.000298 0.000344 0.002954 0.001796 0.001419
0.315100 -0.006504 0.000300 0.000347 0.002954 0.001798 0.001425
0.317800 -0.006531 0.000303 0.000349 0.002954 0.001801 0.001431
0.320600 -0.006559 0.000306 0.000351 0.002955 0.001803 0.001437
0.323300 -0.006586 0.000308 0.000353 0.002955 0.001805 0.001444
0.326000 -0.006613 0.000311 0.000356 0.002955 0.001808 0.001450
0.328800 -0.006640 0.000314 0.000358 0.002955 0.001810 0.001456
0.331500 -0.006666 0.000316 0.000360 0.002955 0.001812 0.001462
0.334300 -0.006693 0.000319 0.000362 0.002955 0.001814 0.001468
0.337000 -0.006719 0.000322 0.000364 0.002955 0.001817 0.001474
0.339700 -0.006745 0.000324 0.000366 0.002955 0.001819 0.001480
0.342500 -0.006771 0.000327 0.000368 0.002955 0.001821 0.001487
0.345200 -0.006796 0.000330 0.000370 0.002955 0.001823 0.001493
0.347900 -0.006822 0.000332 0.000372 0.002954 0.001825 0.001499
0.350700 -0.006847 0.000335 0.000374 0.002954 0.001828 0.001505
0.353400 -0.006872 0.000338 0.000376 0.002954 0.001830 0.001511
0.356200 -0.006898 0.000341 0.000378 0.002953 0.001832 0.001517
0.358900 -0.006922 0.000343 0.000380 0.002953 0.001834 0.001523
0.361600 -0.006947 0.000346 0.000382 0.002952 0.001836 0.001529
0.364400 -0.006972 0.000349 0.000384 0.002952 0.001839 0.001535
0.367100 -0.006996 0.000351 0.000386 0.002951 0.001841 0.001541
0.369900 -0.007021 0.000354 0.000388 0.002951 0.001843 0.001548
0.372600 -0.007044 0.000357 0.000389 0.002950 0.001845 0.001553
0.375300 -0.007068 0.000359 0.000391 0.002949 0.001847 0.001559
0.378100 -0.007092 0.000362 0.000393 0.002949 0.001849 0.001565
0.380800 -0.007116 0.000365 0.000395 0.002948 0.001851 0.001571
0.383600 -0.007140 0.000368 0.000396 0.002947 0.001853 0.001577
0.386300 -0.007163 0.000370 0.000398 0.002946 0.001856 0.001583
0.389000 -0.007186 0.000373 0.000400 0.002945 0.001858 0.001589
0.391800 -0.007210 0.000376 0.000401 0.002944 0.001860 0.001595
0.394500 -0.007232 0.000378 0.000403 0.002943 0.001862 0.001601
0.397300 -0.007256 0.000381 0.000404 0.002942 0.001864 0.001607
0.400000 -0.007278 0.000384 0.000406 0.002941 0.001866 0.001613
0.402700 -0.007300 0.000387 0.000407 0.002940 0.001868 0.001618
0.405500 -0.007323 0.000389 0.000409 0.002939 0.001870 0.001624
0.408200 -0.007346 0.000392 0.000410 0.002938 0.001872 0.001630
0.411000 -0.007368 0.000395 0.000412 0.002937 0.001874 0.001636
0.413700 -0.007390 0.000398 0.000413 0.002936 0.001876 0.001642
0.416400 -0.007412 0.000400 0.000414 0.002935 0.001878 0.001647
0.419200 -0.007434 0.000403 0.000416 0.002933 0.001880 0.001653
0.421900 -0.007456 0.000406 0.000417 0.002932 0.001882 0.001659
0.424700 -0.007478 0.000408 0.000418 0.002931 0.001884 0.001665
0.427400 -0.007499 0.000411 0.000419 0.002930 0.001886 0.001670
0.430100 -0.007521 0.000414 0.000421 0.002928 0.001888 0.001676
0.432900 -0.007542 0.000417 0.000422 0.002927 0.001890 0.001682
0.435600 -0.007563 0.000419 0.000423 0.002925 0.001891 0.001687
0.438400 -0.007585 0.000422 0.000424 0.002924 0.001893 0.001693
0.441100 -0.007606 0.000425 0.000425 0.002923 0.001895 0.001698
0.443800 -0.007626 0.000428 0.000426 0.002921 0.001897 0.001704
0.446600 -0.007648 0.000430 0.000427 0.002920 0.001899 0.001709
0.449300 -0.007668 0.000433 0.000428 0.002918 0.001901 0.001715
0.452100 -0.007689 0.000436 0.000429 0.002917 0.001903 0.001720
0.454800 -0.007710 0.000439 0.000430 0.002915 0.001905 0.001726
0.457500 -0.007730 0.000441 0.000431 0.002913 0.001906 0.001731
0.460300 -0.007751 0.000444 0.000432 0.002912 0.001908 0.001737
0.463000 -0.007771 0.000447 0.000433 0.002910 0.001910 0.001742
0.465800 -0.007791 0.000450 0.000434 0.002909 0.001912 0.001747
0.468500 -0.007811 0.000452 0.000435 0.002907 0.001914 0.001753
0.471200 -0.007831 0.000455 0.000436 0.002905 0.001915 0.001758
0.474000 -0.007851 0.000458 0.000437 0.002904 0.001917 0.001763
0.476700 -0.007871 0.000461 0.000437 0.002902 0.001919 0.001768
0.479500 -0.007891 0.000464 0.000438 0.002900 0.001921 0.001774
0.482200 -0.007911 0.000466 0.000439 0.002899 0.001923 0.001779
0.484900 -0.007930 0.000469 0.000439 0.002897 0.001924 0.001784
0.487700 -0.007950 0.000472 0.000440 0.002895 0.001926 0.001789
0.490400 -0.007969 0.000475 0.000441 0.002893 0.001928 0.001794
0.493200 -0.007989 0.000477 0.000441 0.002891 0.001929 0.001799
0.495900 -0.008008 0.000480 0.000442 0.002890 0.001931 0.001804
0.498600 -0.008027 0.000483 0.000442 0.002888 0.001933 0.001809
0.501400 -0.008046 0.000486 0.000443 0.002886 0.001934 0.001815
0.504100 -0.008065 0.000489 0.000443 0.002884 0.001936 0.001820
0.506900 -0.008084 0.000491 0.000444 0.002882 0.001938 0.001825
0.509600 -0.008103 0.000494 0.000444 0.002880 0.001939 0.001830
0.512300 -0.008122 0.000497 0.000445 0.002879 0.001941 0.001834
0.517800 -0.008159 0.000503 0.000446 0.002875 0.001944 0.001844
0.520600 -0.008178 0.000505 0.000446 0.002873 0.001946 0.001849
0.523300 -0.008196 0.000508 0.000446 0.002871 0.001947 0.001854
0.526000 -0.008215 0.000511 0.000447 0.002869 0.001949 0.001859
0.528800 -0.008233 0.000514 0.000447 0.002867 0.001951 0.001864
0.531500 -0.008252 0.000517 0.000447 0.002865 0.001952 0.001868
0.534300 -0.008270 0.000519 0.000447 0.002863 0.001954 0.001873
0.537000 -0.008288 0.000522 0.000447 0.002861 0.001955 0.001878
0.539700 -0.008306 0.000525 0.000448 0.002859 0.001957 0.001882
0.542500 -0.008324 0.000528 0.000448 0.002857 0.001958 0.001887
0.545200 -0.008342 0.000531 0.000448 0.002855 0.001960 0.001892
0.547900 -0.008360 0.000533 0.000448 0.002854 0.001961 0.001896
0.550700 -0.008378 0.000536 0.000448 0.002852 0.001963 0.001901
0.553400 -0.008396 0.000539 0.000448 0.002850 0.001964 0.001905
0.556200 -0.008414 0.000542 0.000448 0.002848 0.001966 0.001910
0.558900 -0.008431 0.000545 0.000448 0.002846 0.001967 0.001915
0.561600 -0.008449 0.000547 0.000448 0.002844 0.001968 0.001919
0.564400 -0.008467 0.000550 0.000448 0.002842 0.001970 0.001924
0.567100 -0.008484 0.000553 0.000448 0.002840 0.001971 0.001928
0.569900 -0.008502 0.000556 0.000448 0.002838 0.001973 0.001932
0.572600 -0.008519 0.000559 0.000448 0.002836 0.001974 0.001937
0.575300 -0.008536 0.000562 0.000448 0.002834 0.001975 0.001941
0.578100 -0.008553 0.000564 0.000447 0.002831 0.001977 0.001945
0.580800 -0.008570 0.000567 0.000447 0.002829 0.001978 0.001950
0.583600 -0.008588 0.000570 0.000447 0.002827 0.001980 0.001954
0.586300 -0.008605 0.000573 0.000447 0.002825 0.001981 0.001958
0.589000 -0.008622 0.000576 0.000446 0.002823 0.001982 0.001962
0.591800 -0.008639 0.000579 0.000446 0.002821 0.001984 0.001967
0.594500 -0.008656 0.000581 0.000446 0.002819 0.001985 0.001971
0.597300 -0.008673 0.000584 0.000445 0.002817 0.001986 0.001975
0.600000 -0.008690 0.000587 0.000445 0.002815 0.001987 0.001979
0.602700 -0.008706 0.000590 0.000445 0.002813 0.001989 0.001983
0.605500 -0.008723 0.000593 0.000444 0.002811 0.001990 0.001987
0.608200 -0.008740 0.000596 0.000444 0.002809 0.001991 0.001991
0.611000 -0.008757 0.000599 0.000443 0.002807 0.001992 0.001995
0.613700 -0.008773 0.000601 0.000443 0.002805 0.001994 0.001999
0.616400 -0.008789 0.000604 0.000442 0.002803 0.001995 0.002003
0.619200 -0.008806 0.000607 0.000442 0.002801 0.001996 0.002007
0.621900 -0.008822 0.000610 0.000441 0.002799 0.001997 0.002011
0.624700 -0.008839 0.000613 0.000441 0.002797 0.001998 0.002015
0.627400 -0.008855 0.000616 0.000440 0.002795 0.002000 0.002019
0.630100 -0.008871 0.000618 0.000440 0.002793 0.002001 0.002023
0.632900 -0.008888 0.000621 0.000439 0.002791 0.002002 0.002027
0.635600 -0.008904 0.000624 0.000438 0.002789 0.002003 0.002030
0.638400 -0.008920 0.000627 0.000438 0.002787 0.002004 0.002034
0.641100 -0.008936 0.000630 0.000437 0.002785 0.002005 0.002038
0.643800 -0.008952 0.000633 0.000436 0.002783 0.002006 0.002041
0.646600 -0.008968 0.000636 0.000435 0.002781 0.002008 0.002045
0.649300 -0.008984 0.000638 0.000435 0.002779 0.002009 0.002049
0.652100 -0.009000 0.000641 0.000434 0.002777 0.002010 0.002053
0.654800 -0.009016 0.000644 0.000433 0.002775 0.002011 0.002056
0.657500 -0.009031 0.000647 0.000432 0.002773 0.002012 0.002060
0.660300 -0.009047 0.000650 0.000431 0.002770 0.002013 0.002063
0.663000 -0.009063 0.000653 0.000430 0.002768 0.002014 0.002067
0.665800 -0.009079 0.000656 0.000429 0.002766 0.002015 0.002070
0.668500 -0.009094 0.000659 0.000428 0.002764 0.002016 0.002074
0.671200 -0.009110 0.000661 0.000428 0.002762 0.002017 0.002077
0.674000 -0.009126 0.000664 0.000427 0.002760 0.002018 0.002081
0.676700 -0.009141 0.000667 0.000426 0.002758 0.002019 0.002084
0.679500 -0.009157 0.000670 0.000425 0.002756 0.002020 0.002088
0.682200 -0.009172 0.000673 0.000424 0.002754 0.002021 0.002091
0.684900 -0.009187 0.000676 0.000422 0.002753 0.002022 0.002094
0.687700 -0.009203 0.000679 0.000421 0.002751 0.002023 0.002098
0.690400 -0.009218 0.000681 0.000420 0.002749 0.002024 0.002101
0.693200 -0.009234 0.000684 0.000419 0.002747 0.002025 0.002104
0.695900 -0.009249 0.000687 0.000418 0.002745 0.002026 0.002107
0.698600 -0.009264 0.000690 0.000417 0.002743 0.002027 0.002111
0.701400 -0.009279 0.000693 0.000416 0.002741 0.002028 0.002114
0.704100 -0.009294 0.000696 0.000415 0.002739 0.002029 0.002117
0.706900 -0.009309 0.000699 0.000413 0.002737 0.002030 0.002120
0.709600 -0.009324 0.000702 0.000412 0.002735 0.002030 0.002123
0.712300 -0.009339 0.000705 0.000411 0.002733 0.002031 0.002126
0.715100 -0.009354 0.000707 0.000409 0.002731 0.002032 0.002130
0.717800 -0.009369 0.000710 0.000408 0.002729 0.002033 0.002133
0.720600 -0.009384 0.000713 0.000407 0.002727 0.002034 0.002136
0.723300 -0.009399 0.000716 0.000406 0.002725 0.002035 0.002139
0.726000 -0.009414 0.000719 0.000404 0.002723 0.002036 0.002142
0.728800 -0.009429 0.000722 0.000403 0.002721 0.002036 0.002145
0.731500 -0.009443 0.000725 0.000401 0.002720 0.002037 0.002148
0.734300 -0.009458 0.000728 0.000400 0.002718 0.002038 0.002151
0.737000 -0.009473 0.000731 0.000399 0.002716 0.002039 0.002153
0.739700 -0.009487 0.000733 0.000397 0.002714 0.002040 0.002156
0.742500 -0.009502 0.000736 0.000396 0.002712 0.002040 0.002159
0.745200 -0.009516 0.000739 0.000394 0.002710 0.002041 0.002162
0.747900 -0.009531 0.000742 0.000393 0.002708 0.002042 0.002165
0.750700 -0.009546 0.000745 0.000391 0.002706 0.002043 0.002168
0.753400 -0.009560 0.000748 0.000390 0.002705 0.002044 0.002170
0.756200 -0.009575 0.000751 0.000388 0.002703 0.002044 0.002173
0.758900 -0.009589 0.000754 0.000386 0.002701 0.002045 0.002176
0.761600 -0.009603 0.000757 0.000385 0.002699 0.002046 0.002178
0.764400 -0.009618 0.000760 0.000383 0.002697 0.002046 0.002181
0.767100 -0.009632 0.000762 0.000382 0.002695 0.002047 0.002184
0.769900 -0.009646 0.000765 0.000380 0.002693 0.002048 0.002187
0.772600 -0.009660 0.000768 0.000378 0.002692 0.002049 0.002189
0.775300 -0.009674 0.000771 0.000377 0.002690 0.002049 0.002192
0.778100 -0.009689 0.000774 0.000375 0.002688 0.002050 0.002194
0.780800 -0.009703 0.000777 0.000373 0.002686 0.002051 0.002197
0.783600 -0.009717 0.000780 0.000371 0.002684 0.002051 0.002199
0.786300 -0.009731 0.000783 0.000370 0.002683 0.002052 0.002202
0.789000 -0.009745 0.000786 0.000368 0.002681 0.002053 0.002204
0.791800 -0.009759 0.000789 0.000366 0.002679 0.002053 0.002207
0.794500 -0.009773 0.000791 0.000364 0.002677 0.002054 0.002209
0.797300 -0.009788 0.000794 0.000362 0.002676 0.002055 0.002212
0.800000 -0.009801 0.000797 0.000360 0.002674 0.002055 0.002214
0.802700 -0.009815 0.000800 0.000359 0.002672 0.002056 0.002216
0.805500 -0.009829 0.000803 0.000357 0.002670 0.002056 0.002219
0.808200 -0.009843 0.000806 0.000355 0.002669 0.002057 0.002221
0.811000 -0.009857 0.000809 0.000353 0.002667 0.002058 0.002223
0.813700 -0.009871 0.000812 0.000351 0.002665 0.002058 0.002226
0.816400 -0.009884 0.000815 0.000349 0.002664 0.002059 0.002228
0.819200 -0.009898 0.000818 0.000347 0.002662 0.002059 0.002230
0.821900 -0.009912 0.000820 0.000345 0.002660 0.002060 0.002232
0.824700 -0.009926 0.000823 0.000343 0.002658 0.002060 0.002235
0.827400 -0.009939 0.000826 0.000341 0.002657 0.002061 0.002237
0.830100 -0.009952 0.000829 0.000339 0.002655 0.002062 0.002239
0.832900 -0.009966 0.000832 0.000337 0.002653 0.002062 0.002241
0.835600 -0.009980 0.000835 0.000335 0.002652 0.002063 0.002243
0.838400 -0.009994 0.000838 0.000333 0.002650 0.002063 0.002246
0.841100 -0.010007 0.000841 0.000331 0.002649 0.002064 0.002248
0.843800 -0.010020 0.000844 0.000329 0.002647 0.002064 0.002250
0.846600 -0.010034 0.000847 0.000326 0.002645 0.002065 0.002252
0.849300 -0.010047 0.000850 0.000324 0.002644 0.002065 0.002254
0.852100 -0.010061 0.000853 0.000322 0.002642 0.002066 0.002256
