# time (yr) north(m) east(m) up(m) northsigma(m) eastsigma(m) upsigma(m)
0.000000 0.000000 0.000000 0.000000 0.001267 0.001344 0.002099
0.002700 -0.000150 0.000167 0.000017 0.001274 0.001350 0.002100
0.005500 -0.000302 0.000337 0.000032 0.001293 0.001366 0.002101
0.008200 -0.000444 0.000497 0.000047 0.001318 0.001387 0.002103
0.011000 -0.000588 0.000660 0.000061 0.001350 0.001414 0.002106
0.013700 -0.000723 0.000813 0.000074 0.001383 0.001442 0.002108
0.016400 -0.000854 0.000964 0.000086 0.001418 0.001472 0.002111
0.019200 -0.000987 0.001116 0.000099 0.001454 0.001503 0.002114
0.021900 -0.001112 0.001259 0.000112 0.001488 0.001535 0.002116
0.024700 -0.001239 0.001405 0.000124 0.001522 0.001567 0.002120
0.027400 -0.001357 0.001542 0.000136 0.001554 0.001598 0.002123
0.035600 -0.001701 0.001938 0.000173 0.001643 0.001692 0.002133
0.038400 -0.001813 0.002067 0.000185 0.001670 0.001723 0.002137
0.041100 -0.001918 0.002189 0.000196 0.001695 0.001752 0.002141
0.043800 -0.002021 0.002307 0.000208 0.001718 0.001782 0.002146
0.046600 -0.002125 0.002427 0.000220 0.001741 0.001811 0.002150
0.049300 -0.002223 0.002540 0.000232 0.001761 0.001839 0.002155
0.052100 -0.002322 0.002655 0.000244 0.001781 0.001868 0.002160
0.054800 -0.002415 0.002763 0.000255 0.001800 0.001895 0.002165
0.057500 -0.002506 0.002868 0.000267 0.001817 0.001922 0.002170
0.060300 -0.002598 0.002974 0.000278 0.001834 0.001949 0.002175
0.063000 -0.002685 0.003075 0.000290 0.001849 0.001974 0.002180
0.065800 -0.002772 0.003176 0.000302 0.001864 0.002000 0.002186
0.068500 -0.002855 0.003272 0.000313 0.001878 0.002025 0.002192
0.071200 -0.002936 0.003365 0.000324 0.001891 0.002049 0.002198
0.074000 -0.003017 0.003460 0.000336 0.001904 0.002074 0.002204
0.076700 -0.003094 0.003549 0.000347 0.001915 0.002097 0.002211
0.079500 -0.003172 0.003640 0.000358 0.001927 0.002120 0.002217
0.082200 -0.003246 0.003725 0.000369 0.001938 0.002143 0.002224
0.084900 -0.003317 0.003808 0.000380 0.001948 0.002164 0.002231
0.087700 -0.003390 0.003893 0.000391 0.001958 0.002186 0.002238
0.090400 -0.003458 0.003972 0.000402 0.001967 0.002207 0.002245
0.093200 -0.003527 0.004053 0.000413 0.001976 0.002228 0.002252
0.095900 -0.003593 0.004129 0.000424 0.001985 0.002248 0.002259
0.098600 -0.003656 0.004204 0.000434 0.001993 0.002268 0.002267
0.101400 -0.003721 0.004279 0.000445 0.002002 0.002288 0.002274
0.104100 -0.003782 0.004351 0.000456 0.002009 0.002306 0.002282
0.106900 -0.003843 0.004423 0.000467 0.002017 0.002325 0.002290
0.109600 -0.003901 0.004492 0.000477 0.002024 0.002343 0.002298
0.112300 -0.003958 0.004559 0.000487 0.002032 0.002360 0.002306
0.115100 -0.004015 0.004627 0.000498 0.002039 0.002378 0.002314
0.117800 -0.004069 0.004691 0.000508 0.002046 0.002394 0.002322
0.120600 -0.004124 0.004756 0.000518 0.002053 0.002411 0.002331
0.123300 -0.004176 0.004818 0.000528 0.002059 0.002427 0.002339
0.126000 -0.004226 0.004879 0.000538 0.002066 0.002442 0.002347
0.128800 -0.004278 0.004940 0.000549 0.002072 0.002457 0.002356
0.131500 -0.004326 0.004998 0.000558 0.002078 0.002472 0.002365
0.134300 -0.004375 0.005057 0.000568 0.002085 0.002486 0.002373
0.137000 -0.004421 0.005113 0.000578 0.002091 0.002500 0.002382
0.139700 -0.004466 0.005168 0.000587 0.002097 0.002514 0.002391
0.142500 -0.004511 0.005224 0.000597 0.002103 0.002527 0.002400
0.145200 -0.004555 0.005277 0.000607 0.002108 0.002540 0.002409
0.147900 -0.004597 0.005329 0.000616 0.002114 0.002552 0.002417
0.150700 -0.004639 0.005381 0.000625 0.002120 0.002564 0.002427
0.153400 -0.004680 0.005431 0.000634 0.002126 0.002576 0.002436
0.156200 -0.004720 0.005482 0.000644 0.002131 0.002588 0.002445
0.158900 -0.004759 0.005531 0.000653 0.002137 0.002599 0.002454
0.161600 -0.004796 0.005578 0.000662 0.002142 0.002609 0.002463
0.164400 -0.004835 0.005626 0.000671 0.002148 0.002620 0.002472
0.167100 -0.004871 0.005672 0.000679 0.002153 0.002630 0.002481
0.169900 -0.004907 0.005719 0.000688 0.002159 0.002640 0.002491
0.172600 -0.004941 0.005763 0.000697 0.002164 0.002649 0.002500
0.175300 -0.004975 0.005807 0.000705 0.002170 0.002658 0.002509
0.178100 -0.005009 0.005851 0.000714 0.002175 0.002667 0.002518
0.180800 -0.005042 0.005893 0.000722 0.002180 0.002676 0.002528
0.183600 -0.005074 0.005936 0.000731 0.002185 0.002684 0.002537
0.186300 -0.005105 0.005977 0.000739 0.002191 0.002692 0.002546
0.189000 -0.005135 0.006017 0.000747 0.002196 0.002700 0.002555
0.191800 -0.005166 0.006058 0.000755 0.002201 0.002707 0.002565
0.194500 -0.005195 0.006097 0.000763 0.002206 0.002714 0.002574
0.197300 -0.005224 0.006137 0.000771 0.002211 0.002721 0.002584
0.200000 -0.005252 0.006175 0.000778 0.002216 0.002728 0.002593
0.202700 -0.005279 0.006212 0.000786 0.002221 0.002734 0.002602
0.205500 -0.005306 0.006251 0.000794 0.002226 0.002740 0.002611
0.208200 -0.005332 0.006287 0.000801 0.002230 0.002746 0.002620
0.211000 -0.005359 0.006324 0.000809 0.002235 0.002752 0.002630
0.213700 -0.005384 0.006359 0.000816 0.002240 0.002757 0.002639
0.216400 -0.005408 0.006394 0.000823 0.002245 0.002762 0.002648
0.219200 -0.005433 0.006430 0.000830 0.002249 0.002767 0.002657
0.221900 -0.005456 0.006463 0.000837 0.002254 0.002772 0.002666
0.224700 -0.005480 0.006498 0.000844 0.002259 0.002777 0.002676
0.227400 -0.005502 0.006531 0.000851 0.002263 0.002781 0.002685
0.230100 -0.005524 0.006564 0.000858 0.002267 0.002785 0.002694
0.232900 -0.005547 0.006597 0.000865 0.002272 0.002789 0.002703
0.235600 -0.005568 0.006629 0.000871 0.002276 0.002793 0.002712
0.238400 -0.005589 0.006661 0.000878 0.002281 0.002796 0.002721
0.241100 -0.005610 0.006692 0.000884 0.002285 0.002800 0.002730
0.243800 -0.005629 0.006723 0.000890 0.002289 0.002803 0.002739
0.246600 -0.005650 0.006754 0.000897 0.002293 0.002806 0.002748
0.249300 -0.005669 0.006784 0.000903 0.002298 0.002808 0.002756
0.252100 -0.005688 0.006815 0.000909 0.002302 0.002811 0.002765
0.254800 -0.005706 0.006844 0.000915 0.002306 0.002813 0.002774
0.257500 -0.005724 0.006873 0.000921 0.002310 0.002815 0.002783
0.260300 -0.005743 0.006903 0.000927 0.002314 0.002818 0.002792
0.263000 -0.005760 0.006931 0.000933 0.002318 0.002819 0.002800
0.265800 -0.005777 0.006960 0.000939 0.002322 0.002821 0.002809
0.268500 -0.005794 0.006988 0.000944 0.002325 0.002823 0.002818
0.271200 -0.005810 0.007015 0.000950 0.002329 0.002824 0.002826
0.274000 -0.005827 0.007043 0.000955 0.002333 0.002826 0.002835
0.276700 -0.005843 0.007070 0.000960 0.002336 0.002827 0.002843
0.279500 -0.005859 0.007098 0.000966 0.002340 0.002828 0.002852
0.282200 -0.005874 0.007124 0.000971 0.002344 0.002829 0.002860
0.284900 -0.005888 0.007150 0.000976 0.002347 0.002829 0.002868
0.287700 -0.005903 0.007177 0.000981 0.002351 0.002830 0.002877
0.290400 -0.005918 0.007203 0.000986 0.002354 0.002830 0.002885
0.293200 -0.005932 0.007229 0.000991 0.002358 0.002831 0.002893
0.295900 -0.005946 0.007254 0.000996 0.002361 0.002831 0.002901
0.298600 -0.005960 0.007279 0.001000 0.002364 0.002831 0.002909
0.301400 -0.005973 0.007305 0.001005 0.002367 0.002831 0.002918
0.304100 -0.005986 0.007329 0.001010 0.002371 0.002831 0.002926
0.306900 -0.006000 0.007355 0.001014 0.002374 0.002831 0.002934
0.309600 -0.006012 0.007379 0.001019 0.002377 0.002830 0.002941
0.312300 -0.006025 0.007403 0.001023 0.002380 0.002830 0.002949
0.315100 -0.006037 0.007427 0.001027 0.002383 0.002829 0.002957
0.317800 -0.006049 0.007451 0.001032 0.002386 0.002829 0.002965
0.320600 -0.006061 0.007475 0.001036 0.002389 0.002828 0.002973
0.323300 -0.006073 0.007498 0.001040 0.002392 0.002827 0.002980
0.326000 -0.006084 0.007521 0.001044 0.002395 0.002826 0.002988
0.328800 -0.006096 0.007545 0.001048 0.002397 0.002825 0.002996
0.331500 -0.006107 0.007567 0.001052 0.002400 0.002824 0.003003
0.334300 -0.006118 0.007591 0.001055 0.002403 0.002823 0.003011
0.337000 -0.006128 0.007613 0.001059 0.002406 0.002821 0.003018
0.339700 -0.006139 0.007635 0.001063 0.002408 0.002820 0.003025
0.342500 -0.006149 0.007658 0.001066 0.002411 0.002818 0.003033
0.345200 -0.006160 0.007680 0.001070 0.002413 0.002817 0.003040
0.347900 -0.006170 0.007702 0.001073 0.002416 0.002815 0.003047
0.350700 -0.006180 0.007724 0.001076 0.002418 0.002814 0.003055
0.353400 -0.006189 0.007746 0.001080 0.002421 0.002812 0.003062
0.356200 -0.006199 0.007768 0.001083 0.002423 0.002810 0.003069
0.358900 -0.006209 0.007789 0.001086 0.002426 0.002808 0.003076
0.361600 -0.006218 0.007810 0.001089 0.002428 0.002806 0.003083
0.364400 -0.006227 0.007832 0.001092 0.002430 0.002804 0.003090
0.367100 -0.006236 0.007853 0.001095 0.002432 0.002802 0.003097
0.369900 -0.006245 0.007874 0.001098 0.002435 0.002800 0.003104
0.372600 -0.006254 0.007895 0.001101 0.002437 0.002797 0.003110
0.375300 -0.006262 0.007915 0.001104 0.002439 0.002795 0.003117
0.378100 -0.006271 0.007936 0.001106 0.002441 0.002793 0.003124
0.380800 -0.006280 0.007957 0.001109 0.002443 0.002790 0.003130
0.383600 -0.006288 0.007977 0.001111 0.002445 0.002788 0.003137
0.386300 -0.006296 0.007997 0.001114 0.002447 0.002785 0.003144
0.389000 -0.006304 0.008017 0.001116 0.002449 0.002783 0.003150
0.391800 -0.006312 0.008038 0.001119 0.002451 0.002780 0.003157
0.394500 -0.006320 0.008058 0.001121 0.002453 0.002777 0.003163
0.397300 -0.006328 0.008078 0.001123 0.002455 0.002775 0.003169
0.400000 -0.006336 0.008098 0.001125 0.002456 0.002772 0.003176
0.402700 -0.006343 0.008117 0.001128 0.002458 0.002769 0.003182
0.405500 -0.006351 0.008137 0.001130 0.002460 0.002766 0.003188
0.408200 -0.006358 0.008156 0.001132 0.002462 0.002763 0.003194
0.411000 -0.006366 0.008176 0.001134 0.002463 0.002760 0.003200
0.413700 -0.006373 0.008195 0.001135 0.002465 0.002758 0.003206
0.416400 -0.006380 0.008214 0.001137 0.002467 0.002755 0.003212
0.419200 -0.006387 0.008234 0.001139 0.002468 0.002751 0.003218
0.421900 -0.006394 0.008253 0.001141 0.002470 0.002748 0.003224
0.424700 -0.006401 0.008272 0.001142 0.002472 0.002745 0.003230
0.427400 -0.006408 0.008291 0.001144 0.002473 0.002742 0.003236
0.430100 -0.006414 0.008310 0.001146 0.002475 0.002739 0.003242
0.432900 -0.006421 0.008329 0.001147 0.002476 0.002736 0.003248
0.435600 -0.006428 0.008347 0.001148 0.002478 0.002733 0.003253
0.438400 -0.006435 0.008366 0.001150 0.002479 0.002729 0.003259
0.441100 -0.006441 0.008385 0.001151 0.002480 0.002726 0.003264
0.443800 -0.006447 0.008403 0.001152 0.002482 0.002723 0.003270
0.446600 -0.006454 0.008422 0.001154 0.002483 0.002719 0.003276
0.449300 -0.006460 0.008440 0.001155 0.002484 0.002716 0.003281
0.452100 -0.006466 0.008459 0.001156 0.002486 0.002713 0.003286
0.454800 -0.006473 0.008477 0.001157 0.002487 0.002709 0.003292
0.457500 -0.006479 0.008494 0.001158 0.002488 0.002706 0.003297
0.460300 -0.006485 0.008513 0.001159 0.002490 0.002703 0.003302
0.463000 -0.006491 0.008531 0.001160 0.002491 0.002699 0.003307
0.465800 -0.006497 0.008549 0.001161 0.002492 0.002696 0.003313
0.468500 -0.006503 0.008567 0.001161 0.002493 0.002692 0.003318
0.471200 -0.006509 0.008585 0.001162 0.002494 0.002689 0.003323
0.474000 -0.006515 0.008603 0.001163 0.002495 0.002685 0.003328
0.476700 -0.006520 0.008620 0.001163 0.002497 0.002682 0.003333
0.479500 -0.006526 0.008638 0.001164 0.002498 0.002678 0.003338
0.482200 -0.006532 0.008656 0.001164 0.002499 0.002675 0.003343
0.484900 -0.006538 0.008673 0.001165 0.002500 0.002671 0.003348
0.487700 -0.006543 0.008691 0.001165 0.002501 0.002668 0.003353
0.490400 -0.006549 0.008708 0.001166 0.002502 0.002664 0.003357
0.493200 -0.006555 0.008726 0.001166 0.002503 0.002660 0.003362
0.495900 -0.006560 0.008743 0.001166 0.002504 0.002657 0.003367
0.498600 -0.006566 0.008761 0.001167 0.002505 0.002653 0.003371
0.501400 -0.006571 0.008778 0.001167 0.002506 0.002650 0.003376
0.504100 -0.006577 0.008795 0.001167 0.002507 0.002646 0.003381
0.506900 -0.006582 0.008813 0.001167 0.002508 0.002642 0.003385
0.509600 -0.006587 0.008830 0.001167 0.002509 0.002639 0.003390
0.512300 -0.006593 0.008847 0.001167 0.002509 0.002635 0.003394
0.517800 -0.006603 0.008881 0.001167 0.002511 0.002628 0.003403
0.520600 -0.006609 0.008899 0.001167 0.002512 0.002624 0.003407
0.523300 -0.006614 0.008915 0.001167 0.002513 0.002621 0.003412
0.526000 -0.006619 0.008932 0.001167 0.002514 0.002617 0.003416
0.528800 -0.006625 0.008949 0.001166 0.002514 0.002613 0.003420
0.531500 -0.006630 0.008966 0.001166 0.002515 0.002610 0.003424
0.534300 -0.006635 0.008983 0.001166 0.002516 0.002606 0.003429
0.537000 -0.006640 0.009000 0.001165 0.002517 0.002603 0.003433
0.539700 -0.006645 0.009016 0.001165 0.002518 0.002599 0.003437
0.542500 -0.006650 0.009033 0.001165 0.002518 0.002595 0.003441
0.545200 -0.006656 0.009050 0.001164 0.002519 0.002592 0.003445
0.547900 -0.006661 0.009066 0.001164 0.002520 0.002588 0.003449
0.550700 -0.006666 0.009083 0.001163 0.002520 0.002585 0.003453
0.553400 -0.006671 0.009100 0.001162 0.002521 0.002581 0.003457
0.556200 -0.006676 0.009117 0.001162 0.002522 0.002577 0.003460
0.558900 -0.006681 0.009133 0.001161 0.002523 0.002574 0.003464
0.561600 -0.006686 0.009149 0.001160 0.002523 0.002570 0.003468
0.564400 -0.006691 0.009166 0.001160 0.002524 0.002567 0.003472
0.567100 -0.006696 0.009182 0.001159 0.002524 0.002563 0.003475
0.569900 -0.006701 0.009199 0.001158 0.002525 0.002560 0.003479
0.572600 -0.006706 0.009215 0.001157 0.002526 0.002556 0.003483
0.575300 -0.006711 0.009231 0.001156 0.002526 0.002553 0.003486
0.578100 -0.006716 0.009248 0.001155 0.002527 0.002549 0.003490
0.580800 -0.006721 0.009264 0.001154 0.002528 0.002546 0.003494
0.583600 -0.006726 0.009281 0.001153 0.002528 0.002542 0.003497
0.586300 -0.006731 0.009297 0.001152 0.002529 0.002539 0.003501
0.589000 -0.006736 0.009313 0.001151 0.002529 0.002535 0.003504
0.591800 -0.006741 0.009329 0.001150 0.002530 0.002532 0.003508
0.594500 -0.006746 0.009345 0.001149 0.002530 0.002528 0.003511
0.597300 -0.006751 0.009362 0.001147 0.002531 0.002525 0.003514
0.600000 -0.006756 0.009377 0.001146 0.002531 0.002522 0.003518
0.602700 -0.006761 0.009393 0.001145 0.002532 0.002518 0.003521
0.605500 -0.006766 0.009410 0.001143 0.002532 0.002515 0.003524
0.608200 -0.006771 0.009426 0.001142 0.002533 0.002511 0.003527
0.611000 -0.006776 0.009442 0.001141 0.002533 0.002508 0.003531
0.613700 -0.006780 0.009458 0.001139 0.002534 0.002505 0.003534
0.616400 -0.006785 0.009474 0.001138 0.002534 0.002501 0.003537
0.619200 -0.006790 0.009490 0.001136 0.002535 0.002498 0.003540
0.621900 -0.006795 0.009506 0.001135 0.002535 0.002495 0.003543
0.624700 -0.006800 0.009522 0.001133 0.002536 0.002491 0.003546
0.627400 -0.006805 0.009537 0.001132 0.002536 0.002488 0.003549
0.630100 -0.006810 0.009553 0.001130 0.002537 0.002485 0.003552
0.632900 -0.006815 0.009569 0.001128 0.002537 0.002482 0.003555
0.635600 -0.006820 0.009585 0.001127 0.002538 0.002478 0.003558
0.638400 -0.006825 0.009601 0.001125 0.002538 0.002475 0.003561
0.641100 -0.006830 0.009617 0.001123 0.002539 0.002472 0.003564
0.643800 -0.006835 0.009632 0.001121 0.002539 0.002469 0.003567
0.646600 -0.006840 0.009648 0.001120 0.002539 0.002466 0.003569
0.649300 -0.006845 0.009664 0.001118 0.002540 0.002462 0.003572
0.652100 -0.006850 0.009680 0.001116 0.002540 0.002459 0.003575
0.654800 -0.006855 0.009695 0.001114 0.002541 0.002456 0.003578
0.657500 -0.006860 0.009711 0.001112 0.002541 0.002453 0.003580
0.660300 -0.006865 0.009727 0.001110 0.002541 0.002450 0.003583
0.663000 -0.006870 0.009742 0.001108 0.002542 0.002447 0.003586
0.665800 -0.006875 0.009758 0.001106 0.002542 0.002444 0.003588
0.668500 -0.006880 0.009774 0.001104 0.002543 0.002441 0.003591
0.671200 -0.006885 0.009789 0.001102 0.002543 0.002438 0.003593
0.674000 -0.006890 0.009805 0.001100 0.002543 0.002435 0.003596
0.676700 -0.006895 0.009820 0.001098 0.002544 0.002432 0.003599
0.679500 -0.006900 0.009836 0.001096 0.002544 0.002429 0.003601
0.682200 -0.006905 0.009851 0.001093 0.002544 0.002426 0.003604
0.684900 -0.006910 0.009867 0.001091 0.002545 0.002423 0.003606
0.687700 -0.006915 0.009883 0.001089 0.002545 0.002420 0.003608
0.690400 -0.006920 0.009898 0.001087 0.002545 0.002418 0.003611
0.693200 -0.006926 0.009914 0.001084 0.002546 0.002415 0.003613
0.695900 -0.006931 0.009929 0.001082 0.002546 0.002412 0.003616
0.698600 -0.006936 0.009944 0.001080 0.002546 0.002409 0.003618
0.701400 -0.006941 0.009960 0.001077 0.002547 0.002406 0.003620
0.704100 -0.006946 0.009975 0.001075 0.002547 0.002404 0.003622
0.706900 -0.006951 0.009991 0.001072 0.002547 0.002401 0.003625
0.709600 -0.006956 0.010006 0.001070 0.002548 0.002398 0.003627
0.712300 -0.006962 0.010021 0.001068 0.002548 0.002395 0.003629
0.715100 -0.006967 0.010037 0.001065 0.002548 0.002393 0.003631
0.717800 -0.006972 0.010052 0.001063 0.002549 0.002390 0.003634
0.720600 -0.006977 0.010068 0.001060 0.002549 0.002387 0.003636
0.723300 -0.006982 0.010083 0.001057 0.002549 0.002385 0.003638
0.726000 -0.006988 0.010098 0.001055 0.002550 0.002382 0.003640
0.728800 -0.006993 0.010114 0.001052 0.002550 0.002380 0.003642
0.731500 -0.006998 0.010129 0.001050 0.002550 0.002377 0.003644
0.734300 -0.007004 0.010144 0.001047 0.002550 0.002374 0.003646
0.737000 -0.007009 0.010159 0.001044 0.002551 0.002372 0.003648
0.739700 -0.007014 0.010174 0.001042 0.002551 0.002370 0.003650
0.742500 -0.007019 0.010190 0.001039 0.002551 0.002367 0.003652
0.745200 -0.007025 0.010205 0.001036 0.002552 0.002365 0.003654
0.747900 -0.007030 0.010220 0.001033 0.002552 0.002362 0.003656
0.750700 -0.007035 0.010235 0.001030 0.002552 0.002360 0.003658
0.753400 -0.007041 0.010250 0.001028 0.002552 0.002357 0.003660
0.756200 -0.007046 0.010266 0.001025 0.002553 0.002355 0.003662
0.758900 -0.007051 0.010281 0.001022 0.002553 0.002353 0.003664
0.761600 -0.007057 0.010296 0.001019 0.002553 0.002350 0.003665
0.764400 -0.007062 0.010311 0.001016 0.002553 0.002348 0.003667
0.767100 -0.007068 0.010326 0.001013 0.002554 0.002346 0.003669
0.769900 -0.007073 0.010342 0.001010 0.002554 0.002343 0.003671
0.772600 -0.007079 0.010357 0.001007 0.002554 0.002341 0.003673
0.775300 -0.007084 0.010371 0.001004 0.002554 0.002339 0.003674
0.778100 -0.007090 0.010387 0.001001 0.002555 0.002337 0.003676
0.780800 -0.007095 0.010402 0.000998 0.002555 0.002335 0.003678
0.783600 -0.007101 0.010417 0.000995 0.002555 0.002332 0.003679
0.786300 -0.007106 0.010432 0.000992 0.002555 0.002330 0.003681
0.789000 -0.007112 0.010447 0.000989 0.002556 0.002328 0.003683
0.791800 -0.007117 0.010462 0.000986 0.002556 0.002326 0.003684
0.794500 -0.007123 0.010477 0.000983 0.002556 0.002324 0.003686
0.797300 -0.007128 0.010492 0.000979 0.002556 0.002322 0.003688
0.800000 -0.007134 0.010507 0.000976 0.002556 0.002320 0.003689
0.802700 -0.007140 0.010522 0.000973 0.002557 0.002318 0.003691
0.805500 -0.007145 0.010537 0.000970 0.002557 0.002316 0.003692
0.808200 -0.007151 0.010552 0.000967 0.002557 0.002314 0.003694
0.811000 -0.007157 0.010567 0.000963 0.002557 0.002312 0.003695
0.813700 -0.007162 0.010582 0.000960 0.002557 0.002310 0.003697
0.816400 -0.007168 0.010597 0.000957 0.002558 0.002308 0.003698
0.819200 -0.007174 0.010612 0.000954 0.002558 0.002306 0.003700
0.821900 -0.007179 0.010627 0.000950 0.002558 0.002304 0.003701
0.824700 -0.007185 0.010642 0.000947 0.002558 0.002303 0.003703
0.827400 -0.007191 0.010657 0.000944 0.002558 0.002301 0.003704
0.830100 -0.007197 0.010672 0.000940 0.002559 0.002299 0.003705
0.832900 -0.007202 0.010687 0.000937 0.002559 0.002297 0.003707
0.835600 -0.007208 0.010702 0.000933 0.002559 0.002295 0.003708
0.838400 -0.007214 0.010717 0.000930 0.002559 0.002294 0.003710
0.841100 -0.007220 0.010731 0.000927 0.002559 0.002292 0.003711
0.843800 -0.007226 0.010746 0.000923 0.002560 0.002290 0.003712
0.846600 -0.007232 0.010761 0.000920 0.002560 0.002288 0.003714
0.849300 -0.007237 0.010776 0.000916 0.002560 0.002287 0.003715
0.852100 -0.007244 0.010791 0.000913 0.002560 0.002285 0.003716
0.854800 -0.007249 0.010806 0.000909 0.002560 0.002284 0.003717
0.857500 -0.007255 0.010820 0.000906 0.002560 0.002282 0.003719
