# time (yr) north(m) east(m) up(m) northsigma(m) eastsigma(m) upsigma(m)
0.000000 0.000000 0.000000 0.000000 0.001330 0.001007 0.000672
0.002700 0.000005 -0.000036 -0.000006 0.001330 0.001008 0.000673
0.005500 0.000010 -0.000073 -0.000012 0.001332 0.001010 0.000673
0.008200 0.000016 -0.000108 -0.000017 0.001335 0.001014 0.000673
0.011000 0.000021 -0.000144 -0.000023 0.001340 0.001019 0.000673
0.013700 0.000027 -0.000179 -0.000029 0.001345 0.001024 0.000674
0.016400 0.000033 -0.000213 -0.000035 0.001352 0.001031 0.000675
0.021900 0.000044 -0.000282 -0.000047 0.001369 0.001046 0.000676
0.024700 0.000050 -0.000316 -0.000053 0.001380 0.001055 0.000677
0.027400 0.000056 -0.000349 -0.000059 0.001390 0.001064 0.000678
0.030100 0.000062 -0.000382 -0.000065 0.001402 0.001073 0.000679
0.032900 0.000068 -0.000416 -0.000071 0.001415 0.001082 0.000680
0.035600 0.000074 -0.000448 -0.000077 0.001428 0.001092 0.000682
0.038400 0.000081 -0.000482 -0.000083 0.001442 0.001102 0.000683
0.041100 0.000087 -0.000513 -0.000088 0.001456 0.001112 0.000685
0.043800 0.000093 -0.000545 -0.000094 0.001470 0.001121 0.000686
0.046600 0.000099 -0.000577 -0.000100 0.001486 0.001132 0.000688
0.049300 0.000105 -0.000609 -0.000106 0.001501 0.001142 0.000689
0.052100 0.000111 -0.000641 -0.000112 0.001516 0.001152 0.000691
0.054800 0.000117 -0.000671 -0.000118 0.001532 0.001162 0.000693
0.057500 0.000123 -0.000702 -0.000124 0.001547 0.001173 0.000695
0.060300 0.000129 -0.000733 -0.000130 0.001563 0.001183 0.000697
0.063000 0.000135 -0.000763 -0.000136 0.001579 0.001193 0.000699
0.065800 0.000141 -0.000794 -0.000142 0.001595 0.001204 0.000701
0.068500 0.000147 -0.000823 -0.000148 0.001610 0.001214 0.000703
0.071200 0.000153 -0.000852 -0.000154 0.001625 0.001224 0.000706
0.074000 0.000159 -0.000882 -0.000160 0.001641 0.001235 0.000708
0.076700 0.000165 -0.000911 -0.000166 0.001656 0.001245 0.000710
0.079500 0.000171 -0.000941 -0.000172 0.001671 0.001256 0.000713
0.082200 0.000177 -0.000969 -0.000177 0.001685 0.001266 0.000715
0.084900 0.000183 -0.000997 -0.000183 0.001700 0.001277 0.000718
0.087700 0.000189 -0.001026 -0.000189 0.001714 0.001287 0.000720
0.090400 0.000195 -0.001053 -0.000195 0.001728 0.001297 0.000723
0.093200 0.000201 -0.001082 -0.000201 0.001742 0.001308 0.000726
0.095900 0.000207 -0.001109 -0.000207 0.001755 0.001318 0.000728
0.098600 0.000212 -0.001136 -0.000213 0.001768 0.001328 0.000731
0.101400 0.000218 -0.001163 -0.000219 0.001781 0.001339 0.000734
0.104100 0.000224 -0.001190 -0.000225 0.001794 0.001349 0.000737
0.106900 0.000230 -0.001217 -0.000231 0.001806 0.001359 0.000740
0.109600 0.000235 -0.001243 -0.000237 0.001818 0.001369 0.000743
0.112300 0.000241 -0.001269 -0.000243 0.001830 0.001379 0.000745
0.115100 0.000247 -0.001295 -0.000249 0.001841 0.001390 0.000748
0.117800 0.000252 -0.001321 -0.000255 0.001852 0.001400 0.000751
0.120600 0.000258 -0.001347 -0.000261 0.001863 0.001410 0.000754
0.123300 0.000263 -0.001372 -0.000266 0.001874 0.001420 0.000758
0.126000 0.000269 -0.001397 -0.000272 0.001884 0.001429 0.000761
0.128800 0.000275 -0.001422 -0.000278 0.001894 0.001439 0.000764
0.131500 0.000280 -0.001446 -0.000284 0.001904 0.001449 0.000767
0.134300 0.000286 -0.001471 -0.000290 0.001913 0.001459 0.000770
0.137000 0.000291 -0.001495 -0.000296 0.001922 0.001468 0.000773
0.139700 0.000296 -0.001519 -0.000302 0.001931 0.001478 0.000776
0.142500 0.000302 -0.001543 -0.000308 0.001940 0.001488 0.000779
0.145200 0.000307 -0.001567 -0.000314 0.001948 0.001497 0.000783
0.147900 0.000312 -0.001590 -0.000319 0.001957 0.001506 0.000786
0.150700 0.000318 -0.001613 -0.000326 0.001965 0.001515 0.000789
0.153400 0.000323 -0.001636 -0.000331 0.001972 0.001524 0.000792
0.156200 0.000328 -0.001660 -0.000337 0.001980 0.001534 0.000796
0.158900 0.000333 -0.001682 -0.000343 0.001987 0.001543 0.000799
0.161600 0.000338 -0.001704 -0.000349 0.001994 0.001551 0.000802
0.164400 0.000344 -0.001727 -0.000355 0.002001 0.001560 0.000806
0.167100 0.000349 -0.001749 -0.000361 0.002008 0.001569 0.000809
0.169900 0.000354 -0.001771 -0.000367 0.002015 0.001578 0.000812
0.172600 0.000359 -0.001793 -0.000373 0.002021 0.001586 0.000815
0.175300 0.000364 -0.001814 -0.000378 0.002027 0.001595 0.000819
0.178100 0.000369 -0.001836 -0.000384 0.002033 0.001603 0.000822
0.180800 0.000374 -0.001857 -0.000390 0.002039 0.001612 0.000825
0.183600 0.000379 -0.001878 -0.000396 0.002044 0.001620 0.000829
0.186300 0.000384 -0.001899 -0.000402 0.002050 0.001628 0.000832
0.189000 0.000389 -0.001919 -0.000408 0.002055 0.001636 0.000835
0.191800 0.000394 -0.001940 -0.000414 0.002060 0.001644 0.000839
0.194500 0.000399 -0.001961 -0.000420 0.002065 0.001652 0.000842
0.197300 0.000404 -0.001981 -0.000426 0.002070 0.001660 0.000845
0.200000 0.000408 -0.002001 -0.000431 0.002075 0.001668 0.000849
0.202700 0.000413 -0.002021 -0.000437 0.002079 0.001675 0.000852
0.205500 0.000418 -0.002041 -0.000443 0.002084 0.001683 0.000855
0.208200 0.000422 -0.002060 -0.000449 0.002088 0.001690 0.000858
0.211000 0.000427 -0.002080 -0.000455 0.002092 0.001698 0.000862
0.213700 0.000432 -0.002099 -0.000461 0.002096 0.001705 0.000865
0.216400 0.000436 -0.002118 -0.000466 0.002100 0.001712 0.000868
0.219200 0.000441 -0.002138 -0.000472 0.002104 0.001719 0.000872
0.221900 0.000446 -0.002156 -0.000478 0.002108 0.001726 0.000875
0.224700 0.000450 -0.002176 -0.000484 0.002112 0.001734 0.000878
0.227400 0.000455 -0.002194 -0.000490 0.002116 0.001740 0.000881
0.230100 0.000459 -0.002212 -0.000496 0.002119 0.001747 0.000885
0.232900 0.000464 -0.002231 -0.000502 0.002123 0.001754 0.000888
0.235600 0.000468 -0.002249 -0.000507 0.002126 0.001761 0.000891
0.238400 0.000473 -0.002267 -0.000513 0.002129 0.001767 0.000894
0.241100 0.000477 -0.002285 -0.000519 0.002132 0.001774 0.000898
0.243800 0.000481 -0.002303 -0.000525 0.002135 0.001780 0.000901
0.246600 0.000486 -0.002321 -0.000531 0.002139 0.001786 0.000904
0.249300 0.000490 -0.002338 -0.000536 0.002141 0.001793 0.000907
0.252100 0.000494 -0.002356 -0.000542 0.002144 0.001799 0.000910
0.254800 0.000499 -0.002373 -0.000548 0.002147 0.001805 0.000913
0.257500 0.000503 -0.002390 -0.000554 0.002150 0.001811 0.000916
0.260300 0.000507 -0.002408 -0.000560 0.002153 0.001817 0.000920
0.263000 0.000511 -0.002424 -0.000565 0.002155 0.001823 0.000923
0.265800 0.000515 -0.002442 -0.000571 0.002158 0.001829 0.000926
0.268500 0.000520 -0.002458 -0.000577 0.002161 0.001835 0.000929
0.271200 0.000524 -0.002474 -0.000583 0.002163 0.001840 0.000932
0.274000 0.000528 -0.002491 -0.000588 0.002166 0.001846 0.000935
0.276700 0.000532 -0.002507 -0.000594 0.002168 0.001852 0.000938
0.279500 0.000536 -0.002524 -0.000600 0.002170 0.001857 0.000941
0.282200 0.000540 -0.002540 -0.000606 0.002173 0.001863 0.000944
0.284900 0.000544 -0.002556 -0.000611 0.002175 0.001868 0.000947
0.287700 0.000548 -0.002572 -0.000617 0.002177 0.001874 0.000950
0.290400 0.000552 -0.002588 -0.000623 0.002180 0.001879 0.000953
0.293200 0.000556 -0.002604 -0.000629 0.002182 0.001884 0.000956
0.295900 0.000559 -0.002620 -0.000634 0.002184 0.001889 0.000959
0.298600 0.000563 -0.002635 -0.000640 0.002186 0.001894 0.000961
0.301400 0.000567 -0.002651 -0.000646 0.002188 0.001899 0.000964
0.304100 0.000571 -0.002666 -0.000651 0.002190 0.001904 0.000967
0.306900 0.000575 -0.002681 -0.000657 0.002192 0.001909 0.000970
0.309600 0.000578 -0.002696 -0.000663 0.002194 0.001914 0.000973
0.312300 0.000582 -0.002711 -0.000668 0.002196 0.001919 0.000976
0.315100 0.000586 -0.002727 -0.000674 0.002198 0.001924 0.000978
0.317800 0.000589 -0.002741 -0.000680 0.002200 0.001929 0.000981
0.320600 0.000593 -0.002756 -0.000686 0.002202 0.001933 0.000984
0.323300 0.000597 -0.002771 -0.000691 0.002204 0.001938 0.000987
0.326000 0.000600 -0.002785 -0.000697 0.002206 0.001942 0.000989
0.328800 0.000604 -0.002800 -0.000703 0.002207 0.001947 0.000992
0.331500 0.000607 -0.002814 -0.000708 0.002209 0.001952 0.000995
0.334300 0.000611 -0.002829 -0.000714 0.002211 0.001956 0.000997
0.337000 0.000615 -0.002843 -0.000720 0.002213 0.001960 0.001000
0.339700 0.000618 -0.002857 -0.000725 0.002215 0.001965 0.001003
0.342500 0.000621 -0.002872 -0.000731 0.002216 0.001969 0.001005
0.345200 0.000625 -0.002885 -0.000736 0.002218 0.001973 0.001008
0.347900 0.000628 -0.002899 -0.000742 0.002220 0.001978 0.001010
0.350700 0.000632 -0.002913 -0.000748 0.002221 0.001982 0.001013
0.353400 0.000635 -0.002927 -0.000753 0.002223 0.001986 0.001016
0.356200 0.000638 -0.002941 -0.000759 0.002225 0.001990 0.001018
0.358900 0.000642 -0.002954 -0.000765 0.002226 0.001994 0.001021
0.361600 0.000645 -0.002968 -0.000770 0.002228 0.001998 0.001023
0.364400 0.000648 -0.002981 -0.000776 0.002230 0.002002 0.001026
0.367100 0.000652 -0.002995 -0.000781 0.002231 0.002006 0.001028
0.369900 0.000655 -0.003008 -0.000787 0.002233 0.002010 0.001031
0.372600 0.000658 -0.003021 -0.000792 0.002235 0.002014 0.001033
0.375300 0.000661 -0.003034 -0.000798 0.002236 0.002018 0.001035
0.378100 0.000664 -0.003048 -0.000804 0.002238 0.002022 0.001038
0.380800 0.000667 -0.003060 -0.000809 0.002239 0.002025 0.001040
0.383600 0.000671 -0.003074 -0.000815 0.002241 0.002029 0.001042
0.386300 0.000674 -0.003086 -0.000820 0.002242 0.002033 0.001045
0.389000 0.000677 -0.003099 -0.000826 0.002244 0.002036 0.001047
0.391800 0.000680 -0.003112 -0.000831 0.002245 0.002040 0.001049
0.394500 0.000683 -0.003124 -0.000837 0.002247 0.002044 0.001052
0.397300 0.000686 -0.003137 -0.000842 0.002248 0.002047 0.001054
0.400000 0.000689 -0.003150 -0.000848 0.002250 0.002051 0.001056
0.402700 0.000692 -0.003162 -0.000853 0.002251 0.002054 0.001058
0.405500 0.000695 -0.003175 -0.000859 0.002253 0.002058 0.001061
0.408200 0.000698 -0.003187 -0.000864 0.002254 0.002061 0.001063
0.411000 0.000701 -0.003199 -0.000870 0.002256 0.002065 0.001065
0.413700 0.000704 -0.003211 -0.000875 0.002257 0.002068 0.001067
0.416400 0.000706 -0.003223 -0.000881 0.002259 0.002072 0.001069
0.419200 0.000709 -0.003236 -0.000886 0.002260 0.002075 0.001071
0.421900 0.000712 -0.003248 -0.000892 0.002262 0.002078 0.001074
0.424700 0.000715 -0.003260 -0.000897 0.002263 0.002082 0.001076
0.427400 0.000718 -0.003272 -0.000903 0.002265 0.002085 0.001078
0.430100 0.000720 -0.003283 -0.000908 0.002266 0.002088 0.001080
0.432900 0.000723 -0.003295 -0.000913 0.002267 0.002091 0.001082
0.435600 0.000726 -0.003307 -0.000919 0.002269 0.002095 0.001084
0.438400 0.000729 -0.003319 -0.000924 0.002270 0.002098 0.001086
0.441100 0.000731 -0.003330 -0.000930 0.002272 0.002101 0.001088
0.443800 0.000734 -0.003342 -0.000935 0.002273 0.002104 0.001090
0.446600 0.000737 -0.003353 -0.000941 0.002275 0.002107 0.001092
0.449300 0.000739 -0.003365 -0.000946 0.002276 0.002110 0.001094
0.452100 0.000742 -0.003376 -0.000951 0.002277 0.002113 0.001096
0.454800 0.000745 -0.003387 -0.000957 0.002279 0.002116 0.001098
0.457500 0.000747 -0.003399 -0.000962 0.002280 0.002119 0.001100
0.460300 0.000750 -0.003410 -0.000967 0.002281 0.002123 0.001102
0.463000 0.000752 -0.003421 -0.000973 0.002283 0.002125 0.001104
0.465800 0.000755 -0.003432 -0.000978 0.002284 0.002129 0.001105
0.468500 0.000757 -0.003443 -0.000983 0.002286 0.002131 0.001107
0.471200 0.000760 -0.003454 -0.000989 0.002287 0.002134 0.001109
0.474000 0.000762 -0.003465 -0.000994 0.002288 0.002137 0.001111
0.476700 0.000765 -0.003476 -0.000999 0.002290 0.002140 0.001113
0.479500 0.000767 -0.003487 -0.001005 0.002291 0.002143 0.001115
0.482200 0.000769 -0.003498 -0.001010 0.002292 0.002146 0.001116
0.484900 0.000772 -0.003508 -0.001015 0.002294 0.002149 0.001118
0.487700 0.000774 -0.003519 -0.001021 0.002295 0.002152 0.001120
0.490400 0.000777 -0.003530 -0.001026 0.002296 0.002154 0.001122
0.493200 0.000779 -0.003541 -0.001031 0.002298 0.002157 0.001124
0.495900 0.000781 -0.003551 -0.001036 0.002299 0.002160 0.001125
0.498600 0.000783 -0.003562 -0.001042 0.002300 0.002163 0.001127
0.501400 0.000786 -0.003572 -0.001047 0.002302 0.002166 0.001129
0.504100 0.000788 -0.003583 -0.001052 0.002303 0.002168 0.001130
0.506900 0.000790 -0.003593 -0.001057 0.002304 0.002171 0.001132
0.509600 0.000793 -0.003603 -0.001063 0.002306 0.002174 0.001134
0.512300 0.000795 -0.003613 -0.001068 0.002307 0.002176 0.001135
0.517800 0.000799 -0.003634 -0.001078 0.002310 0.002182 0.001139
0.520600 0.000801 -0.003644 -0.001084 0.002311 0.002184 0.001140
0.523300 0.000803 -0.003654 -0.001089 0.002312 0.002187 0.001142
0.526000 0.000806 -0.003664 -0.001094 0.002314 0.002189 0.001144
0.528800 0.000808 -0.003675 -0.001099 0.002315 0.002192 0.001145
0.531500 0.000810 -0.003684 -0.001104 0.002316 0.002195 0.001147
0.534300 0.000812 -0.003695 -0.001109 0.002318 0.002197 0.001148
0.537000 0.000814 -0.003704 -0.001114 0.002319 0.002200 0.001150
0.539700 0.000816 -0.003714 -0.001120 0.002320 0.002202 0.001151
0.542500 0.000818 -0.003724 -0.001125 0.002322 0.002205 0.001153
0.545200 0.000820 -0.003734 -0.001130 0.002323 0.002207 0.001154
0.547900 0.000822 -0.003743 -0.001135 0.002324 0.002210 0.001156
0.550700 0.000824 -0.003753 -0.001140 0.002325 0.002212 0.001157
0.553400 0.000826 -0.003763 -0.001145 0.002327 0.002215 0.001159
0.556200 0.000828 -0.003773 -0.001150 0.002328 0.002217 0.001160
0.558900 0.000830 -0.003782 -0.001155 0.002329 0.002220 0.001162
0.561600 0.000832 -0.003791 -0.001160 0.002331 0.002222 0.001163
0.564400 0.000834 -0.003801 -0.001166 0.002332 0.002225 0.001165
0.567100 0.000836 -0.003810 -0.001171 0.002333 0.002227 0.001166
0.569900 0.000838 -0.003820 -0.001176 0.002334 0.002230 0.001168
0.572600 0.000839 -0.003829 -0.001181 0.002336 0.002232 0.001169
0.575300 0.000841 -0.003839 -0.001186 0.002337 0.002234 0.001171
0.578100 0.000843 -0.003848 -0.001191 0.002338 0.002237 0.001172
0.580800 0.000845 -0.003857 -0.001196 0.002340 0.002239 0.001173
0.583600 0.000847 -0.003867 -0.001201 0.002341 0.002242 0.001175
0.586300 0.000848 -0.003876 -0.001206 0.002342 0.002244 0.001176
0.589000 0.000850 -0.003885 -0.001211 0.002343 0.002246 0.001178
0.591800 0.000852 -0.003894 -0.001216 0.002345 0.002249 0.001179
0.594500 0.000854 -0.003903 -0.001221 0.002346 0.002251 0.001180
0.597300 0.000856 -0.003912 -0.001226 0.002347 0.002253 0.001182
0.600000 0.000857 -0.003921 -0.001231 0.002348 0.002256 0.001183
0.602700 0.000859 -0.003930 -0.001236 0.002350 0.002258 0.001184
0.605500 0.000861 -0.003939 -0.001241 0.002351 0.002260 0.001186
0.608200 0.000862 -0.003948 -0.001246 0.002352 0.002263 0.001187
0.611000 0.000864 -0.003957 -0.001251 0.002354 0.002265 0.001188
0.613700 0.000866 -0.003966 -0.001256 0.002355 0.002267 0.001190
0.616400 0.000867 -0.003975 -0.001260 0.002356 0.002269 0.001191
0.619200 0.000869 -0.003984 -0.001266 0.002357 0.002272 0.001192
0.621900 0.000870 -0.003992 -0.001270 0.002359 0.002274 0.001193
0.624700 0.000872 -0.004001 -0.001275 0.002360 0.002276 0.001195
0.627400 0.000874 -0.004010 -0.001280 0.002361 0.002278 0.001196
0.630100 0.000875 -0.004018 -0.001285 0.002362 0.002281 0.001197
0.632900 0.000877 -0.004027 -0.001290 0.002364 0.002283 0.001199
0.635600 0.000878 -0.004036 -0.001295 0.002365 0.002285 0.001200
0.638400 0.000880 -0.004044 -0.001300 0.002366 0.002287 0.001201
0.641100 0.000881 -0.004053 -0.001305 0.002367 0.002290 0.001202
0.643800 0.000883 -0.004061 -0.001309 0.002369 0.002292 0.001203
0.646600 0.000884 -0.004070 -0.001314 0.002370 0.002294 0.001205
0.649300 0.000886 -0.004078 -0.001319 0.002371 0.002296 0.001206
0.652100 0.000887 -0.004087 -0.001324 0.002372 0.002298 0.001207
0.654800 0.000889 -0.004095 -0.001329 0.002374 0.002300 0.001208
0.657500 0.000890 -0.004103 -0.001333 0.002375 0.002303 0.001209
0.660300 0.000892 -0.004112 -0.001338 0.002376 0.002305 0.001211
0.663000 0.000893 -0.004120 -0.001343 0.002377 0.002307 0.001212
0.665800 0.000894 -0.004128 -0.001348 0.002379 0.002309 0.001213
0.668500 0.000896 -0.004137 -0.001353 0.002380 0.002311 0.001214
0.671200 0.000897 -0.004145 -0.001357 0.002381 0.002313 0.001215
0.674000 0.000899 -0.004153 -0.001362 0.002382 0.002315 0.001217
0.676700 0.000900 -0.004161 -0.001367 0.002384 0.002317 0.001218
0.679500 0.000901 -0.004169 -0.001372 0.002385 0.002320 0.001219
0.682200 0.000903 -0.004177 -0.001376 0.002386 0.002322 0.001220
0.684900 0.000904 -0.004185 -0.001381 0.002387 0.002324 0.001221
0.687700 0.000905 -0.004194 -0.001386 0.002389 0.002326 0.001222
0.690400 0.000906 -0.004202 -0.001391 0.002390 0.002328 0.001223
0.693200 0.000908 -0.004210 -0.001395 0.002391 0.002330 0.001224
0.695900 0.000909 -0.004218 -0.001400 0.002393 0.002332 0.001226
0.698600 0.000910 -0.004225 -0.001405 0.002394 0.002334 0.001227
0.701400 0.000912 -0.004234 -0.001410 0.002395 0.002336 0.001228
0.704100 0.000913 -0.004241 -0.001414 0.002396 0.002338 0.001229
0.706900 0.000914 -0.004249 -0.001419 0.002398 0.002340 0.001230
0.709600 0.000915 -0.004257 -0.001423 0.002399 0.002342 0.001231
0.712300 0.000916 -0.004265 -0.001428 0.002400 0.002344 0.001232
0.715100 0.000918 -0.004273 -0.001433 0.002401 0.002346 0.001233
0.717800 0.000919 -0.004281 -0.001437 0.002403 0.002348 0.001234
0.720600 0.000920 -0.004288 -0.001442 0.002404 0.002350 0.001235
0.723300 0.000921 -0.004296 -0.001447 0.002405 0.002352 0.001236
0.726000 0.000922 -0.004304 -0.001451 0.002406 0.002354 0.001237
0.728800 0.000923 -0.004311 -0.001456 0.002408 0.002356 0.001239
0.731500 0.000925 -0.004319 -0.001460 0.002409 0.002358 0.001240
0.734300 0.000926 -0.004327 -0.001465 0.002410 0.002360 0.001241
0.737000 0.000927 -0.004334 -0.001470 0.002411 0.002362 0.001242
0.739700 0.000928 -0.004342 -0.001474 0.002413 0.002364 0.001243
0.742500 0.000929 -0.004350 -0.001479 0.002414 0.002366 0.001244
0.745200 0.000930 -0.004357 -0.001483 0.002415 0.002368 0.001245
0.747900 0.000931 -0.004364 -0.001488 0.002416 0.002370 0.001246
0.750700 0.000932 -0.004372 -0.001492 0.002418 0.002372 0.001247
0.753400 0.000933 -0.004379 -0.001497 0.002419 0.002374 0.001248
0.756200 0.000934 -0.004387 -0.001502 0.002420 0.002376 0.001249
0.758900 0.000935 -0.004394 -0.001506 0.002421 0.002378 0.001250
0.761600 0.000936 -0.004402 -0.001510 0.002423 0.002380 0.001251
0.764400 0.000937 -0.004409 -0.001515 0.002424 0.002382 0.001252
0.767100 0.000938 -0.004416 -0.001520 0.002425 0.002384 0.001253
0.769900 0.000939 -0.004424 -0.001524 0.002426 0.002386 0.001254
0.772600 0.000940 -0.004431 -0.001529 0.002428 0.002388 0.001255
0.775300 0.000941 -0.004438 -0.001533 0.002429 0.002390 0.001256
0.778100 0.000942 -0.004446 -0.001538 0.002430 0.002392 0.001257
0.780800 0.000943 -0.004453 -0.001542 0.002431 0.002394 0.001258
0.783600 0.000944 -0.004460 -0.001546 0.002433 0.002396 0.001259
0.786300 0.000945 -0.004467 -0.001551 0.002434 0.002397 0.001260
0.789000 0.000946 -0.004475 -0.001555 0.002435 0.002399 0.001261
0.791800 0.000947 -0.004482 -0.001560 0.002436 0.002401 0.001262
0.794500 0.000948 -0.004489 -0.001564 0.002438 0.002403 0.001263
0.797300 0.000948 -0.004496 -0.001569 0.002439 0.002405 0.001264
0.800000 0.000949 -0.004503 -0.001573 0.002440 0.002407 0.001265
0.802700 0.000950 -0.004510 -0.001577 0.002442 0.002409 0.001266
0.805500 0.000951 -0.004517 -0.001582 0.002443 0.002411 0.001267
0.808200 0.000952 -0.004524 -0.001586 0.002444 0.002412 0.001268
0.811000 0.000953 -0.004532 -0.001591 0.002445 0.002414 0.001269
0.813700 0.000953 -0.004539 -0.001595 0.002447 0.002416 0.001269
0.816400 0.000954 -0.004545 -0.001599 0.002448 0.002418 0.001270
0.819200 0.000955 -0.004553 -0.001604 0.002449 0.002420 0.001271
0.821900 0.000956 -0.004559 -0.001608 0.002450 0.002422 0.001272
0.824700 0.000957 -0.004566 -0.001612 0.002452 0.002424 0.001273
0.827400 0.000957 -0.004573 -0.001617 0.002453 0.002425 0.001274
0.830100 0.000958 -0.004580 -0.001621 0.002454 0.002427 0.001275
0.832900 0.000959 -0.004587 -0.001625 0.002455 0.002429 0.001276
0.835600 0.000960 -0.004594 -0.001630 0.002457 0.002431 0.001277
0.838400 0.000961 -0.004601 -0.001634 0.002458 0.002433 0.001278
0.841100 0.000961 -0.004608 -0.001638 0.002459 0.002435 0.001279
