# time (yr) north(m) east(m) up(m) northsigma(m) eastsigma(m) upsigma(m)
0.000000 0.000000 0.000000 0.000000 0.002126 0.001957 0.001207
0.002700 -0.000009 -0.000069 -0.000005 0.002128 0.001957 0.001207
0.005500 -0.000017 -0.000140 -0.000011 0.002132 0.001959 0.001207
0.008200 -0.000025 -0.000208 -0.000016 0.002138 0.001962 0.001207
0.011000 -0.000033 -0.000278 -0.000022 0.002147 0.001966 0.001207
0.013700 -0.000041 -0.000345 -0.000027 0.002158 0.001970 0.001207
0.016400 -0.000048 -0.000411 -0.000032 0.002171 0.001976 0.001207
0.019200 -0.000055 -0.000479 -0.000038 0.002186 0.001982 0.001207
0.021900 -0.000062 -0.000544 -0.000043 0.002203 0.001989 0.001207
0.024700 -0.000069 -0.000610 -0.000049 0.002221 0.001997 0.001207
0.027400 -0.000076 -0.000674 -0.000054 0.002241 0.002006 0.001207
0.030100 -0.000083 -0.000737 -0.000059 0.002262 0.002016 0.001207
0.032900 -0.000089 -0.000802 -0.000065 0.002286 0.002026 0.001207
0.035600 -0.000095 -0.000865 -0.000070 0.002309 0.002037 0.001207
0.038400 -0.000102 -0.000928 -0.000076 0.002335 0.002048 0.001207
0.041100 -0.000108 -0.000989 -0.000081 0.002361 0.002060 0.001207
0.043800 -0.000114 -0.001050 -0.000087 0.002388 0.002073 0.001207
0.046600 -0.000120 -0.001112 -0.000092 0.002416 0.002086 0.001208
0.049300 -0.000126 -0.001171 -0.000098 0.002445 0.002100 0.001208
0.052100 -0.000132 -0.001232 -0.000103 0.002475 0.002114 0.001208
0.054800 -0.000138 -0.001291 -0.000109 0.002504 0.002129 0.001208
0.057500 -0.000144 -0.001349 -0.000114 0.002535 0.002144 0.001208
0.060300 -0.000150 -0.001408 -0.000119 0.002566 0.002159 0.001208
0.063000 -0.000156 -0.001465 -0.000125 0.002597 0.002175 0.001208
0.065800 -0.000162 -0.001524 -0.000130 0.002630 0.002192 0.001208
0.068500 -0.000167 -0.001580 -0.000136 0.002662 0.002208 0.001209
0.071200 -0.000173 -0.001635 -0.000141 0.002694 0.002225 0.001209
0.074000 -0.000179 -0.001692 -0.000147 0.002727 0.002242 0.001209
0.076700 -0.000184 -0.001746 -0.000152 0.002760 0.002260 0.001209
0.079500 -0.000190 -0.001802 -0.000157 0.002794 0.002278 0.001209
0.082200 -0.000196 -0.001856 -0.000163 0.002827 0.002296 0.001209
0.084900 -0.000201 -0.001909 -0.000168 0.002860 0.002313 0.001209
0.087700 -0.000207 -0.001964 -0.000174 0.002894 0.002332 0.001210
0.090400 -0.000212 -0.002016 -0.000179 0.002927 0.002351 0.001210
0.093200 -0.000218 -0.002070 -0.000184 0.002961 0.002370 0.001210
0.095900 -0.000223 -0.002121 -0.000190 0.002994 0.002388 0.001210
0.098600 -0.000229 -0.002172 -0.000195 0.003027 0.002407 0.001210
0.101400 -0.000234 -0.002224 -0.000201 0.003061 0.002427 0.001211
0.104100 -0.000240 -0.002274 -0.000206 0.003094 0.002446 0.001211
0.106900 -0.000245 -0.002325 -0.000211 0.003128 0.002466 0.001211
0.109600 -0.000250 -0.002375 -0.000217 0.003161 0.002485 0.001211
0.112300 -0.000256 -0.002423 -0.000222 0.003194 0.002504 0.001212
0.115100 -0.000261 -0.002474 -0.000227 0.003227 0.002524 0.001212
0.117800 -0.000267 -0.002521 -0.000233 0.003260 0.002544 0.001212
0.120600 -0.000272 -0.002571 -0.000238 0.003293 0.002564 0.001212
0.123300 -0.000277 -0.002618 -0.000243 0.003325 0.002584 0.001212
0.126000 -0.000283 -0.002665 -0.000249 0.003357 0.002603 0.001213
0.128800 -0.000288 -0.002713 -0.000254 0.003390 0.002623 0.001213
0.131500 -0.000293 -0.002759 -0.000259 0.003422 0.002643 0.001213
0.134300 -0.000299 -0.002806 -0.000265 0.003454 0.002663 0.001214
0.137000 -0.000304 -0.002851 -0.000270 0.003486 0.002683 0.001214
0.139700 -0.000309 -0.002896 -0.000275 0.003517 0.002702 0.001214
0.142500 -0.000315 -0.002942 -0.000281 0.003549 0.002723 0.001214
0.145200 -0.000320 -0.002986 -0.000286 0.003579 0.002742 0.001215
0.147900 -0.000325 -0.003030 -0.000291 0.003610 0.002761 0.001215
0.150700 -0.000330 -0.003075 -0.000297 0.003641 0.002782 0.001215
0.153400 -0.000335 -0.003118 -0.000302 0.003671 0.002801 0.001215
0.156200 -0.000341 -0.003162 -0.000307 0.003702 0.002821 0.001216
0.158900 -0.000346 -0.003204 -0.000313 0.003732 0.002840 0.001216
0.161600 -0.000351 -0.003246 -0.000318 0.003761 0.002860 0.001216
0.164400 -0.000356 -0.003289 -0.000323 0.003792 0.002879 0.001217
0.167100 -0.000361 -0.003330 -0.000328 0.003821 0.002898 0.001217
0.169900 -0.000367 -0.003373 -0.000334 0.003851 0.002918 0.001217
0.172600 -0.000372 -0.003413 -0.000339 0.003879 0.002937 0.001218
0.175300 -0.000377 -0.003453 -0.000344 0.003908 0.002956 0.001218
0.178100 -0.000382 -0.003495 -0.000349 0.003937 0.002975 0.001218
0.358900 -0.000707 -0.005546 -0.000687 0.005358 0.003966 0.001249
0.361600 -0.000712 -0.005569 -0.000692 0.005374 0.003977 0.001250
0.364400 -0.000717 -0.005593 -0.000698 0.005390 0.003988 0.001251
0.367100 -0.000722 -0.005615 -0.000702 0.005405 0.003998 0.001251
0.369900 -0.000726 -0.005639 -0.000708 0.005420 0.004009 0.001252
0.372600 -0.000731 -0.005661 -0.000712 0.005435 0.004019 0.001253
0.375300 -0.000736 -0.005683 -0.000717 0.005450 0.004029 0.001253
0.378100 -0.000741 -0.005706 -0.000722 0.005465 0.004039 0.001254
0.380800 -0.000745 -0.005728 -0.000727 0.005479 0.004049 0.001254
0.383600 -0.000750 -0.005750 -0.000732 0.005494 0.004059 0.001255
0.386300 -0.000755 -0.005772 -0.000737 0.005508 0.004069 0.001256
0.389000 -0.000759 -0.005793 -0.000742 0.005522 0.004078 0.001256
0.391800 -0.000764 -0.005815 -0.000747 0.005536 0.004088 0.001257
0.394500 -0.000769 -0.005836 -0.000752 0.005550 0.004097 0.001258
0.397300 -0.000774 -0.005857 -0.000757 0.005564 0.004106 0.001258
0.400000 -0.000778 -0.005878 -0.000762 0.005578 0.004115 0.001259
0.402700 -0.000783 -0.005899 -0.000767 0.005591 0.004124 0.001259
0.405500 -0.000788 -0.005920 -0.000772 0.005605 0.004133 0.001260
0.408200 -0.000792 -0.005940 -0.000777 0.005618 0.004142 0.001261
0.411000 -0.000797 -0.005961 -0.000782 0.005631 0.004151 0.001261
0.413700 -0.000802 -0.005980 -0.000787 0.005644 0.004160 0.001262
0.416400 -0.000806 -0.006000 -0.000792 0.005657 0.004168 0.001263
0.419200 -0.000811 -0.006020 -0.000797 0.005670 0.004177 0.001263
0.421900 -0.000816 -0.006040 -0.000802 0.005683 0.004185 0.001264
0.424700 -0.000821 -0.006060 -0.000807 0.005696 0.004193 0.001265
0.427400 -0.000825 -0.006079 -0.000812 0.005708 0.004201 0.001266
0.430100 -0.000830 -0.006098 -0.000816 0.005720 0.004209 0.001266
0.432900 -0.000835 -0.006117 -0.000821 0.005733 0.004217 0.001267
0.435600 -0.000839 -0.006136 -0.000826 0.005745 0.004225 0.001268
0.438400 -0.000844 -0.006155 -0.000831 0.005757 0.004233 0.001268
0.441100 -0.000849 -0.006173 -0.000836 0.005769 0.004240 0.001269
0.443800 -0.000853 -0.006191 -0.000841 0.005780 0.004248 0.001270
0.446600 -0.000858 -0.006210 -0.000846 0.005792 0.004255 0.001270
0.449300 -0.000863 -0.006228 -0.000851 0.005804 0.004262 0.001271
0.452100 -0.000867 -0.006247 -0.000856 0.005815 0.004270 0.001272
0.454800 -0.000872 -0.006264 -0.000861 0.005826 0.004277 0.001273
0.457500 -0.000876 -0.006282 -0.000865 0.005838 0.004284 0.001273
0.460300 -0.000881 -0.006300 -0.000870 0.005849 0.004291 0.001274
0.463000 -0.000886 -0.006317 -0.000875 0.005860 0.004298 0.001275
0.465800 -0.000890 -0.006335 -0.000880 0.005871 0.004305 0.001275
0.468500 -0.000895 -0.006352 -0.000885 0.005882 0.004311 0.001276
0.471200 -0.000900 -0.006368 -0.000890 0.005892 0.004318 0.001277
0.474000 -0.000904 -0.006386 -0.000895 0.005903 0.004324 0.001278
0.476700 -0.000909 -0.006402 -0.000900 0.005914 0.004331 0.001278
0.479500 -0.000914 -0.006419 -0.000905 0.005924 0.004337 0.001279
0.482200 -0.000918 -0.006436 -0.000909 0.005935 0.004343 0.001280
0.484900 -0.000923 -0.006452 -0.000914 0.005945 0.004349 0.001281
0.487700 -0.000927 -0.006469 -0.000919 0.005955 0.004355 0.001281
0.490400 -0.000932 -0.006485 -0.000924 0.005965 0.004361 0.001282
0.493200 -0.000937 -0.006501 -0.000929 0.005975 0.004367 0.001283
0.495900 -0.000941 -0.006517 -0.000934 0.005985 0.004373 0.001284
0.498600 -0.000946 -0.006532 -0.000938 0.005995 0.004379 0.001284
0.501400 -0.000950 -0.006548 -0.000943 0.006005 0.004385 0.001285
0.504100 -0.000955 -0.006564 -0.000948 0.006014 0.004390 0.001286
0.506900 -0.000960 -0.006580 -0.000953 0.006024 0.004396 0.001287
0.509600 -0.000964 -0.006595 -0.000958 0.006033 0.004401 0.001288
0.512300 -0.000969 -0.006610 -0.000962 0.006042 0.004406 0.001288
0.517800 -0.000978 -0.006640 -0.000972 0.006061 0.004417 0.001290
0.520600 -0.000982 -0.006655 -0.000977 0.006070 0.004422 0.001291
0.523300 -0.000987 -0.006670 -0.000982 0.006079 0.004427 0.001291
0.526000 -0.000991 -0.006684 -0.000987 0.006088 0.004432 0.001292
0.528800 -0.000996 -0.006699 -0.000991 0.006097 0.004437 0.001293
0.531500 -0.001001 -0.006713 -0.000996 0.006106 0.004442 0.001294
0.534300 -0.001005 -0.006728 -0.001001 0.006115 0.004447 0.001295
0.537000 -0.001010 -0.006742 -0.001006 0.006123 0.004451 0.001296
0.539700 -0.001014 -0.006756 -0.001011 0.006131 0.004456 0.001296
0.542500 -0.001019 -0.006770 -0.001015 0.006140 0.004460 0.001297
0.545200 -0.001023 -0.006784 -0.001020 0.006148 0.004465 0.001298
0.547900 -0.001028 -0.006798 -0.001025 0.006157 0.004469 0.001299
0.550700 -0.001032 -0.006812 -0.001030 0.006165 0.004473 0.001300
0.553400 -0.001037 -0.006825 -0.001034 0.006173 0.004478 0.001300
0.556200 -0.001041 -0.006839 -0.001039 0.006181 0.004482 0.001301
0.558900 -0.001046 -0.006852 -0.001044 0.006189 0.004486 0.001302
0.561600 -0.001050 -0.006865 -0.001049 0.006197 0.004490 0.001303
0.564400 -0.001055 -0.006879 -0.001054 0.006205 0.004494 0.001304
0.567100 -0.001059 -0.006892 -0.001058 0.006213 0.004498 0.001305
0.569900 -0.001064 -0.006905 -0.001063 0.006221 0.004502 0.001306
0.572600 -0.001068 -0.006918 -0.001068 0.006228 0.004506 0.001306
0.575300 -0.001073 -0.006931 -0.001073 0.006236 0.004509 0.001307
0.578100 -0.001078 -0.006944 -0.001077 0.006243 0.004513 0.001308
0.580800 -0.001082 -0.006956 -0.001082 0.006251 0.004517 0.001309
0.583600 -0.001087 -0.006969 -0.001087 0.006258 0.004520 0.001310
0.586300 -0.001091 -0.006981 -0.001092 0.006265 0.004524 0.001311
0.589000 -0.001095 -0.006993 -0.001096 0.006273 0.004527 0.001311
0.591800 -0.001100 -0.007006 -0.001101 0.006280 0.004531 0.001312
0.594500 -0.001104 -0.007018 -0.001106 0.006287 0.004534 0.001313
0.597300 -0.001109 -0.007030 -0.001111 0.006294 0.004537 0.001314
0.600000 -0.001113 -0.007042 -0.001115 0.006301 0.004541 0.001315
0.602700 -0.001118 -0.007054 -0.001120 0.006308 0.004544 0.001316
0.605500 -0.001122 -0.007066 -0.001125 0.006315 0.004547 0.001317
0.608200 -0.001127 -0.007078 -0.001129 0.006322 0.004550 0.001318
0.611000 -0.001131 -0.007090 -0.001134 0.006328 0.004553 0.001319
0.613700 -0.001136 -0.007101 -0.001139 0.006335 0.004556 0.001319
0.616400 -0.001140 -0.007112 -0.001143 0.006342 0.004559 0.001320
0.619200 -0.001145 -0.007124 -0.001148 0.006348 0.004562 0.001321
0.621900 -0.001149 -0.007135 -0.001153 0.006355 0.004564 0.001322
0.624700 -0.001154 -0.007147 -0.001158 0.006361 0.004567 0.001323
0.627400 -0.001158 -0.007158 -0.001162 0.006368 0.004570 0.001324
0.630100 -0.001162 -0.007169 -0.001167 0.006374 0.004572 0.001325
0.632900 -0.001167 -0.007180 -0.001172 0.006380 0.004575 0.001326
0.635600 -0.001171 -0.007191 -0.001176 0.006386 0.004578 0.001327
0.638400 -0.001176 -0.007202 -0.001181 0.006393 0.004580 0.001328
0.641100 -0.001180 -0.007212 -0.001186 0.006399 0.004583 0.001329
0.643800 -0.001185 -0.007223 -0.001190 0.006405 0.004585 0.001329
0.646600 -0.001189 -0.007234 -0.001195 0.006411 0.004587 0.001330
0.649300 -0.001193 -0.007244 -0.001200 0.006416 0.004590 0.001331
0.652100 -0.001198 -0.007255 -0.001204 0.006423 0.004592 0.001332
0.654800 -0.001202 -0.007265 -0.001209 0.006428 0.004594 0.001333
0.657500 -0.001207 -0.007276 -0.001214 0.006434 0.004596 0.001334
0.660300 -0.001211 -0.007286 -0.001218 0.006440 0.004598 0.001335
0.663000 -0.001215 -0.007296 -0.001223 0.006445 0.004600 0.001336
0.665800 -0.001220 -0.007307 -0.001228 0.006451 0.004602 0.001337
0.668500 -0.001224 -0.007316 -0.001232 0.006457 0.004604 0.001338
0.671200 -0.001229 -0.007326 -0.001237 0.006462 0.004606 0.001339
0.674000 -0.001233 -0.007336 -0.001242 0.006468 0.004608 0.001340
0.676700 -0.001237 -0.007346 -0.001246 0.006473 0.004610 0.001341
0.679500 -0.001242 -0.007356 -0.001251 0.006479 0.004612 0.001342
0.682200 -0.001246 -0.007366 -0.001255 0.006484 0.004614 0.001343
0.684900 -0.001251 -0.007375 -0.001260 0.006489 0.004616 0.001344
0.687700 -0.001255 -0.007385 -0.001265 0.006494 0.004617 0.001345
0.690400 -0.001259 -0.007394 -0.001269 0.006499 0.004619 0.001346
0.693200 -0.001264 -0.007404 -0.001274 0.006505 0.004621 0.001347
0.695900 -0.001268 -0.007413 -0.001278 0.006510 0.004622 0.001348
0.698600 -0.001272 -0.007423 -0.001283 0.006515 0.004624 0.001348
0.701400 -0.001277 -0.007432 -0.001288 0.006520 0.004625 0.001349
0.704100 -0.001281 -0.007441 -0.001292 0.006525 0.004627 0.001350
0.706900 -0.001286 -0.007451 -0.001297 0.006530 0.004628 0.001351
0.709600 -0.001290 -0.007460 -0.001301 0.006534 0.004630 0.001352
0.712300 -0.001294 -0.007468 -0.001306 0.006539 0.004631 0.001353
0.715100 -0.001299 -0.007478 -0.001311 0.006544 0.004632 0.001354
0.717800 -0.001303 -0.007486 -0.001315 0.006549 0.004634 0.001355
0.720600 -0.001307 -0.007495 -0.001320 0.006554 0.004635 0.001356
0.723300 -0.001312 -0.007504 -0.001324 0.006558 0.004636 0.001357
0.726000 -0.001316 -0.007513 -0.001329 0.006563 0.004637 0.001358
0.728800 -0.001320 -0.007522 -0.001334 0.006567 0.004638 0.001359
0.731500 -0.001325 -0.007530 -0.001338 0.006572 0.004640 0.001360
0.734300 -0.001329 -0.007539 -0.001343 0.006576 0.004641 0.001361
0.737000 -0.001333 -0.007547 -0.001347 0.006581 0.004642 0.001362
0.739700 -0.001338 -0.007556 -0.001352 0.006585 0.004643 0.001363
0.742500 -0.001342 -0.007564 -0.001356 0.006590 0.004644 0.001364
0.745200 -0.001346 -0.007572 -0.001361 0.006594 0.004645 0.001365
0.747900 -0.001351 -0.007581 -0.001365 0.006598 0.004646 0.001366
0.750700 -0.001355 -0.007589 -0.001370 0.006603 0.004647 0.001367
0.753400 -0.001359 -0.007597 -0.001374 0.006607 0.004648 0.001368
0.756200 -0.001364 -0.007605 -0.001379 0.006611 0.004648 0.001369
0.758900 -0.001368 -0.007613 -0.001384 0.006615 0.004649 0.001370
0.761600 -0.001372 -0.007621 -0.001388 0.006619 0.004650 0.001371
0.764400 -0.001376 -0.007629 -0.001393 0.006623 0.004651 0.001373
0.767100 -0.001381 -0.007637 -0.001397 0.006627 0.004652 0.001374
0.769900 -0.001385 -0.007645 -0.001402 0.006631 0.004652 0.001375
0.772600 -0.001389 -0.007653 -0.001406 0.006635 0.004653 0.001376
0.775300 -0.001393 -0.007661 -0.001411 0.006639 0.004654 0.001377
0.778100 -0.001398 -0.007668 -0.001415 0.006643 0.004654 0.001378
0.780800 -0.001402 -0.007676 -0.001420 0.006647 0.004655 0.001379
0.783600 -0.001406 -0.007684 -0.001424 0.006651 0.004656 0.001380
0.786300 -0.001411 -0.007691 -0.001429 0.006655 0.004656 0.001381
0.789000 -0.001415 -0.007699 -0.001433 0.006658 0.004657 0.001382
0.791800 -0.001419 -0.007706 -0.001438 0.006662 0.004657 0.001383
0.794500 -0.001423 -0.007714 -0.001442 0.006666 0.004658 0.001384
0.797300 -0.001428 -0.007721 -0.001447 0.006669 0.004658 0.001385
0.800000 -0.001432 -0.007729 -0.001451 0.006673 0.004659 0.001386
0.802700 -0.001436 -0.007736 -0.001455 0.006677 0.004659 0.001387
0.805500 -0.001440 -0.007743 -0.001460 0.006680 0.004659 0.001388
0.808200 -0.001445 -0.007750 -0.001464 0.006684 0.004660 0.001389
0.811000 -0.001449 -0.007758 -0.001469 0.006687 0.004660 0.001390
0.813700 -0.001453 -0.007765 -0.001473 0.006691 0.004661 0.001391
0.816400 -0.001457 -0.007772 -0.001478 0.006694 0.004661 0.001392
0.819200 -0.001462 -0.007779 -0.001482 0.006698 0.004661 0.001394
0.821900 -0.001466 -0.007786 -0.001487 0.006701 0.004661 0.001395
0.824700 -0.001470 -0.007793 -0.001491 0.006704 0.004662 0.001396
0.827400 -0.001474 -0.007800 -0.001496 0.006708 0.004662 0.001397
0.830100 -0.001479 -0.007806 -0.001500 0.006711 0.004662 0.001398
0.832900 -0.001483 -0.007813 -0.001505 0.006714 0.004662 0.001399
0.835600 -0.001487 -0.007820 -0.001509 0.006717 0.004663 0.001400
0.838400 -0.001491 -0.007827 -0.001514 0.006721 0.004663 0.001401
0.841100 -0.001495 -0.007834 -0.001518 0.006724 0.004663 0.001402
0.843800 -0.001500 -0.007840 -0.001522 0.006727 0.004663 0.001403
0.846600 -0.001504 -0.007847 -0.001527 0.006730 0.004663 0.001404
0.849300 -0.001508 -0.007854 -0.001531 0.006733 0.004663 0.001405
0.852100 -0.001512 -0.007860 -0.001536 0.006736 0.004663 0.001406
0.854800 -0.001516 -0.007867 -0.001540 0.006739 0.004663 0.001408
0.857500 -0.001521 -0.007873 -0.001544 0.006742 0.004663 0.001409
0.860300 -0.001525 -0.007880 -0.001549 0.006745 0.004663 0.001410
0.863000 -0.001529 -0.007886 -0.001553 0.006748 0.004663 0.001411
0.865800 -0.001533 -0.007893 -0.001558 0.006751 0.004663 0.001412
0.868500 -0.001537 -0.007899 -0.001562 0.006754 0.004663 0.001413
0.871200 -0.001541 -0.007905 -0.001566 0.006757 0.004663 0.001414
0.874000 -0.001546 -0.007911 -0.001571 0.006760 0.004663 0.001415
0.876700 -0.001550 -0.007918 -0.001575 0.006763 0.004663 0.001416
0.879500 -0.001554 -0.007924 -0.001580 0.006766 0.004663 0.001417
0.882200 -0.001558 -0.007930 -0.001584 0.006768 0.004663 0.001419
0.884900 -0.001562 -0.007936 -0.001588 0.006771 0.004663 0.001420
0.887700 -0.001567 -0.007942 -0.001593 0.006774 0.004662 0.001421
0.890400 -0.001571 -0.007948 -0.001597 0.006777 0.004662 0.001422
0.893200 -0.001575 -0.007954 -0.001601 0.006779 0.004662 0.001423
0.895900 -0.001579 -0.007960 -0.001606 0.006782 0.004662 0.001424
0.898600 -0.001583 -0.007966 -0.001610 0.006785 0.004662 0.001425
0.901400 -0.001587 -0.007972 -0.001614 0.006787 0.004662 0.001426
0.904100 -0.001591 -0.007978 -0.001619 0.006790 0.004661 0.001427
0.906900 -0.001596 -0.007984 -0.001623 0.006792 0.004661 0.001429
0.909600 -0.001600 -0.007990 -0.001627 0.006795 0.004661 0.001430
0.912300 -0.001604 -0.007996 -0.001632 0.006797 0.004661 0.001431
0.915100 -0.001608 -0.008002 -0.001636 0.006800 0.004660 0.001432
0.917800 -0.001612 -0.008007 -0.001640 0.006802 0.004660 0.001433
0.920600 -0.001616 -0.008013 -0.001645 0.006805 0.004660 0.001434
0.923300 -0.001620 -0.008019 -0.001649 0.006807 0.004659 0.001435
0.926000 -0.001624 -0.008024 -0.001653 0.006810 0.004659 0.001436
0.928800 -0.001629 -0.008030 -0.001658 0.006812 0.004659 0.001438
0.931500 -0.001633 -0.008035 -0.001662 0.006815 0.004658 0.001439
0.934300 -0.001637 -0.008041 -0.001666 0.006817 0.004658 0.001440
0.937000 -0.001641 -0.008047 -0.001671 0.006819 0.004658 0.001441
0.939700 -0.001645 -0.008052 -0.001675 0.006822 0.004657 0.001442
0.942500 -0.001649 -0.008058 -0.001679 0.006824 0.004657 0.001443
0.945200 -0.001653 -0.008063 -0.001684 0.006826 0.004656 0.001444
0.947900 -0.001657 -0.008068 -0.001688 0.006828 0.004656 0.001446
0.950700 -0.001661 -0.008074 -0.001692 0.006831 0.004656 0.001447
0.953400 -0.001665 -0.008079 -0.001696 0.006833 0.004655 0.001448
0.956200 -0.001670 -0.008085 -0.001701 0.006835 0.004655 0.001449
0.958900 -0.001674 -0.008090 -0.001705 0.006837 0.004654 0.001450
0.961600 -0.001678 -0.008095 -0.001709 0.006839 0.004654 0.001451
0.964400 -0.001682 -0.008101 -0.001714 0.006842 0.004653 0.001452
0.967100 -0.001686 -0.008106 -0.001718 0.006844 0.004653 0.001454
0.969900 -0.001690 -0.008111 -0.001722 0.006846 0.004652 0.001455
0.972600 -0.001694 -0.008116 -0.001726 0.006848 0.004652 0.001456
0.975300 -0.001698 -0.008121 -0.001731 0.006850 0.004651 0.001457
0.978100 -0.001702 -0.008127 -0.001735 0.006852 0.004651 0.001458
0.980800 -0.001706 -0.008132 -0.001739 0.006854 0.004650 0.001459
0.983600 -0.001710 -0.008137 -0.001743 0.006856 0.004650 0.001460
0.986300 -0.001714 -0.008142 -0.001748 0.006858 0.004649 0.001462
0.989000 -0.001718 -0.008147 -0.001752 0.006860 0.004649 0.001463
0.991800 -0.001722 -0.008152 -0.001756 0.006862 0.004648 0.001464
0.994500 -0.001726 -0.008157 -0.001760 0.006864 0.004648 0.001465
0.997300 -0.001730 -0.008162 -0.001765 0.006866 0.004647 0.001466
1.000000 -0.001734 -0.008167 -0.001769 0.006868 0.004646 0.001467
1.002700 -0.001738 -0.008172 -0.001773 0.006870 0.004646 0.001469
