# time (yr) north(m) east(m) up(m) northsigma(m) eastsigma(m) upsigma(m)
0.000000 0.000000 0.000000 0.000000 0.000721 0.000565 0.001223
0.002700 -0.000006 -0.000004 -0.000003 0.000723 0.000565 0.001223
0.005500 -0.000013 -0.000007 -0.000007 0.000730 0.000565 0.001223
0.008200 -0.000019 -0.000011 -0.000010 0.000739 0.000566 0.001223
0.011000 -0.000026 -0.000015 -0.000014 0.000751 0.000567 0.001224
0.013700 -0.000032 -0.000019 -0.000017 0.000764 0.000568 0.001224
0.016400 -0.000038 -0.000023 -0.000021 0.000778 0.000569 0.001224
0.019200 -0.000044 -0.000027 -0.000025 0.000793 0.000571 0.001224
0.021900 -0.000050 -0.000031 -0.000028 0.000807 0.000572 0.001225
0.024700 -0.000056 -0.000036 -0.000032 0.000823 0.000574 0.001225
0.027400 -0.000062 -0.000040 -0.000035 0.000838 0.000576 0.001226
0.030100 -0.000067 -0.000044 -0.000039 0.000853 0.000578 0.001226
0.032900 -0.000073 -0.000049 -0.000042 0.000868 0.000580 0.001227
0.035600 -0.000078 -0.000053 -0.000046 0.000882 0.000582 0.001227
0.038400 -0.000083 -0.000057 -0.000049 0.000897 0.000585 0.001228
0.041100 -0.000088 -0.000062 -0.000053 0.000911 0.000587 0.001229
0.043800 -0.000094 -0.000066 -0.000057 0.000925 0.000589 0.001229
0.046600 -0.000099 -0.000070 -0.000060 0.000938 0.000592 0.001230
0.049300 -0.000104 -0.000075 -0.000064 0.000951 0.000595 0.001231
0.052100 -0.000109 -0.000079 -0.000067 0.000965 0.000598 0.001232
0.054800 -0.000113 -0.000084 -0.000071 0.000977 0.000600 0.001233
0.057500 -0.000118 -0.000088 -0.000074 0.000990 0.000603 0.001234
0.060300 -0.000123 -0.000093 -0.000078 0.001002 0.000606 0.001235
0.063000 -0.000127 -0.000097 -0.000082 0.001014 0.000610 0.001236
0.065800 -0.000132 -0.000102 -0.000085 0.001026 0.000613 0.001237
0.068500 -0.000136 -0.000106 -0.000089 0.001038 0.000616 0.001238
0.071200 -0.000141 -0.000111 -0.000092 0.001049 0.000619 0.001239
0.074000 -0.000145 -0.000115 -0.000096 0.001061 0.000623 0.001240
0.076700 -0.000150 -0.000120 -0.000100 0.001072 0.000627 0.001242
0.079500 -0.000154 -0.000124 -0.000103 0.001083 0.000630 0.001243
0.082200 -0.000158 -0.000129 -0.000107 0.001094 0.000634 0.001244
0.084900 -0.000162 -0.000133 -0.000111 0.001105 0.000638 0.001246
0.087700 -0.000167 -0.000138 -0.000114 0.001116 0.000642 0.001247
0.090400 -0.000171 -0.000142 -0.000118 0.001127 0.000646 0.001248
0.093200 -0.000175 -0.000147 -0.000122 0.001138 0.000650 0.001250
0.095900 -0.000179 -0.000152 -0.000125 0.001148 0.000654 0.001251
0.098600 -0.000183 -0.000156 -0.000129 0.001159 0.000658 0.001253
0.101400 -0.000187 -0.000161 -0.000132 0.001169 0.000663 0.001254
0.104100 -0.000191 -0.000165 -0.000136 0.001180 0.000667 0.001256
0.106900 -0.000195 -0.000170 -0.000140 0.001191 0.000672 0.001258
0.109600 -0.000199 -0.000175 -0.000143 0.001201 0.000676 0.001259
0.112300 -0.000203 -0.000179 -0.000147 0.001211 0.000681 0.001261
0.115100 -0.000207 -0.000184 -0.000151 0.001222 0.000686 0.001263
0.117800 -0.000210 -0.000188 -0.000154 0.001232 0.000690 0.001264
0.120600 -0.000214 -0.000193 -0.000158 0.001243 0.000695 0.001266
0.123300 -0.000218 -0.000197 -0.000162 0.001253 0.000700 0.001268
0.126000 -0.000222 -0.000202 -0.000165 0.001263 0.000705 0.001270
0.128800 -0.000226 -0.000207 -0.000169 0.001274 0.000710 0.001272
0.131500 -0.000229 -0.000211 -0.000173 0.001284 0.000715 0.001273
0.134300 -0.000233 -0.000216 -0.000177 0.001295 0.000721 0.001275
0.137000 -0.000237 -0.000220 -0.000180 0.001305 0.000726 0.001277
0.139700 -0.000240 -0.000225 -0.000184 0.001315 0.000731 0.001279
0.142500 -0.000244 -0.000229 -0.000188 0.001326 0.000737 0.001281
0.145200 -0.000248 -0.000234 -0.000192 0.001336 0.000742 0.001283
0.147900 -0.000251 -0.000238 -0.000195 0.001346 0.000748 0.001285
0.150700 -0.000255 -0.000243 -0.000199 0.001357 0.000753 0.001287
0.153400 -0.000259 -0.000248 -0.000203 0.001367 0.000759 0.001290
0.156200 -0.000262 -0.000252 -0.000207 0.001378 0.000765 0.001292
0.158900 -0.000266 -0.000257 -0.000210 0.001388 0.000770 0.001294
0.161600 -0.000270 -0.000261 -0.000214 0.001398 0.000776 0.001296
0.164400 -0.000273 -0.000266 -0.000218 0.001409 0.000782 0.001298
0.167100 -0.000277 -0.000270 -0.000221 0.001419 0.000787 0.001300
0.169900 -0.000280 -0.000275 -0.000225 0.001429 0.000793 0.001303
0.172600 -0.000284 -0.000279 -0.000229 0.001439 0.000799 0.001305
0.175300 -0.000287 -0.000284 -0.000233 0.001450 0.000805 0.001307
0.178100 -0.000291 -0.000289 -0.000237 0.001460 0.000811 0.001309
0.180800 -0.000295 -0.000293 -0.000240 0.001470 0.000817 0.001312
0.183600 -0.000298 -0.000298 -0.000244 0.001481 0.000823 0.001314
0.186300 -0.000302 -0.000302 -0.000248 0.001491 0.000829 0.001316
0.189000 -0.000305 -0.000307 -0.000252 0.001501 0.000835 0.001319
0.191800 -0.000309 -0.000311 -0.000256 0.001511 0.000841 0.001321
0.194500 -0.000312 -0.000316 -0.000259 0.001521 0.000847 0.001323
0.197300 -0.000316 -0.000320 -0.000263 0.001532 0.000853 0.001326
0.200000 -0.000319 -0.000325 -0.000267 0.001542 0.000859 0.001328
0.202700 -0.000323 -0.000329 -0.000271 0.001552 0.000865 0.001330
0.205500 -0.000327 -0.000334 -0.000275 0.001562 0.000872 0.001333
0.208200 -0.000330 -0.000338 -0.000278 0.001572 0.000878 0.001335
0.211000 -0.000334 -0.000343 -0.000282 0.001582 0.000884 0.001338
0.213700 -0.000337 -0.000347 -0.000286 0.001592 0.000890 0.001340
0.216400 -0.000341 -0.000352 -0.000290 0.001602 0.000896 0.001343
0.219200 -0.000344 -0.000356 -0.000294 0.001612 0.000902 0.001345
0.221900 -0.000348 -0.000361 -0.000298 0.001622 0.000909 0.001348
0.224700 -0.000351 -0.000365 -0.000302 0.001632 0.000915 0.001350
0.227400 -0.000355 -0.000370 -0.000305 0.001642 0.000921 0.001353
0.230100 -0.000358 -0.000374 -0.000309 0.001652 0.000927 0.001355
0.232900 -0.000362 -0.000379 -0.000313 0.001662 0.000933 0.001358
0.235600 -0.000365 -0.000383 -0.000317 0.001671 0.000939 0.001361
0.238400 -0.000369 -0.000388 -0.000321 0.001681 0.000946 0.001363
0.241100 -0.000372 -0.000392 -0.000325 0.001691 0.000952 0.001366
0.243800 -0.000376 -0.000396 -0.000328 0.001701 0.000958 0.001368
0.246600 -0.000379 -0.000401 -0.000332 0.001711 0.000964 0.001371
0.249300 -0.000383 -0.000405 -0.000336 0.001720 0.000970 0.001373
0.252100 -0.000386 -0.000410 -0.000340 0.001730 0.000976 0.001376
0.254800 -0.000390 -0.000414 -0.000344 0.001740 0.000982 0.001379
0.257500 -0.000393 -0.000419 -0.000348 0.001749 0.000988 0.001381
0.260300 -0.000397 -0.000423 -0.000352 0.001759 0.000995 0.001384
0.263000 -0.000400 -0.000428 -0.000356 0.001768 0.001001 0.001387
0.265800 -0.000404 -0.000432 -0.000360 0.001778 0.001007 0.001389
0.268500 -0.000408 -0.000436 -0.000364 0.001788 0.001013 0.001392
0.271200 -0.000411 -0.000441 -0.000368 0.001797 0.001019 0.001395
0.274000 -0.000415 -0.000445 -0.000372 0.001807 0.001025 0.001397
0.276700 -0.000418 -0.000450 -0.000375 0.001816 0.001031 0.001400
0.279500 -0.000422 -0.000454 -0.000379 0.001825 0.001037 0.001403
0.282200 -0.000425 -0.000458 -0.000383 0.001835 0.001043 0.001405
0.284900 -0.000429 -0.000463 -0.000387 0.001844 0.001048 0.001408
0.287700 -0.000432 -0.000467 -0.000391 0.001853 0.001055 0.001411
0.290400 -0.000436 -0.000472 -0.000395 0.001863 0.001060 0.001413
0.293200 -0.000440 -0.000476 -0.000399 0.001872 0.001066 0.001416
0.295900 -0.000443 -0.000480 -0.000403 0.001881 0.001072 0.001419
0.298600 -0.000447 -0.000485 -0.000407 0.001890 0.001078 0.001421
0.301400 -0.000450 -0.000489 -0.000411 0.001899 0.001084 0.001424
0.304100 -0.000454 -0.000493 -0.000415 0.001908 0.001090 0.001427
0.306900 -0.000457 -0.000498 -0.000419 0.001918 0.001096 0.001430
0.309600 -0.000461 -0.000502 -0.000423 0.001927 0.001101 0.001432
0.312300 -0.000464 -0.000506 -0.000427 0.001935 0.001107 0.001435
0.315100 -0.000468 -0.000511 -0.000431 0.001945 0.001113 0.001438
0.317800 -0.000472 -0.000515 -0.000435 0.001953 0.001118 0.001440
0.320600 -0.000475 -0.000519 -0.000439 0.001963 0.001124 0.001443
0.323300 -0.000479 -0.000524 -0.000443 0.001971 0.001130 0.001446
0.326000 -0.000482 -0.000528 -0.000447 0.001980 0.001135 0.001448
0.328800 -0.000486 -0.000532 -0.000451 0.001989 0.001141 0.001451
0.331500 -0.000490 -0.000537 -0.000455 0.001998 0.001147 0.001454
0.334300 -0.000493 -0.000541 -0.000459 0.002007 0.001152 0.001457
0.337000 -0.000497 -0.000545 -0.000463 0.002015 0.001158 0.001459
0.339700 -0.000500 -0.000550 -0.000466 0.002024 0.001163 0.001462
0.342500 -0.000504 -0.000554 -0.000471 0.002033 0.001169 0.001465
0.345200 -0.000508 -0.000558 -0.000475 0.002041 0.001174 0.001467
0.347900 -0.000511 -0.000562 -0.000478 0.002050 0.001180 0.001470
0.350700 -0.000515 -0.000567 -0.000483 0.002058 0.001185 0.001473
0.353400 -0.000519 -0.000571 -0.000486 0.002067 0.001190 0.001475
0.356200 -0.000522 -0.000575 -0.000491 0.002075 0.001196 0.001478
0.358900 -0.000526 -0.000579 -0.000495 0.002084 0.001201 0.001481
0.361600 -0.000529 -0.000584 -0.000498 0.002092 0.001206 0.001484
0.364400 -0.000533 -0.000588 -0.000503 0.002101 0.001212 0.001486
0.367100 -0.000537 -0.000592 -0.000507 0.002109 0.001217 0.001489
0.369900 -0.000540 -0.000597 -0.000511 0.002117 0.001222 0.001492
0.372600 -0.000544 -0.000601 -0.000515 0.002126 0.001228 0.001494
0.375300 -0.000548 -0.000605 -0.000519 0.002134 0.001233 0.001497
0.378100 -0.000551 -0.000609 -0.000523 0.002142 0.001238 0.001500
0.380800 -0.000555 -0.000613 -0.000527 0.002150 0.001243 0.001502
0.383600 -0.000559 -0.000618 -0.000531 0.002159 0.001248 0.001505
0.386300 -0.000562 -0.000622 -0.000535 0.002167 0.001253 0.001508
0.389000 -0.000566 -0.000626 -0.000539 0.002175 0.001258 0.001510
0.391800 -0.000570 -0.000630 -0.000543 0.002183 0.001264 0.001513
0.394500 -0.000573 -0.000634 -0.000547 0.002191 0.001268 0.001516
0.397300 -0.000577 -0.000639 -0.000551 0.002199 0.001274 0.001518
0.400000 -0.000581 -0.000643 -0.000555 0.002207 0.001278 0.001521
0.402700 -0.000584 -0.000647 -0.000559 0.002215 0.001283 0.001524
0.405500 -0.000588 -0.000651 -0.000563 0.002223 0.001288 0.001526
0.408200 -0.000592 -0.000655 -0.000567 0.002231 0.001293 0.001529
0.411000 -0.000596 -0.000660 -0.000571 0.002239 0.001298 0.001532
0.413700 -0.000599 -0.000664 -0.000575 0.002247 0.001303 0.001534
0.416400 -0.000603 -0.000668 -0.000579 0.002254 0.001308 0.001537
0.419200 -0.000607 -0.000672 -0.000583 0.002262 0.001313 0.001539
0.421900 -0.000610 -0.000676 -0.000587 0.002270 0.001317 0.001542
0.424700 -0.000614 -0.000680 -0.000591 0.002278 0.001322 0.001545
0.427400 -0.000618 -0.000684 -0.000595 0.002286 0.001327 0.001547
0.430100 -0.000621 -0.000689 -0.000599 0.002293 0.001332 0.001550
0.432900 -0.000625 -0.000693 -0.000604 0.002301 0.001336 0.001552
0.435600 -0.000629 -0.000697 -0.000608 0.002309 0.001341 0.001555
0.438400 -0.000633 -0.000701 -0.000612 0.002316 0.001346 0.001558
0.441100 -0.000636 -0.000705 -0.000616 0.002324 0.001350 0.001560
0.443800 -0.000640 -0.000709 -0.000620 0.002331 0.001355 0.001563
0.446600 -0.000644 -0.000713 -0.000624 0.002339 0.001359 0.001565
0.449300 -0.000647 -0.000717 -0.000628 0.002346 0.001364 0.001568
0.452100 -0.000651 -0.000721 -0.000632 0.002354 0.001369 0.001570
0.454800 -0.000655 -0.000726 -0.000636 0.002361 0.001373 0.001573
0.457500 -0.000659 -0.000730 -0.000640 0.002369 0.001377 0.001575
0.460300 -0.000662 -0.000734 -0.000644 0.002376 0.001382 0.001578
0.463000 -0.000666 -0.000738 -0.000648 0.002383 0.001386 0.001580
0.465800 -0.000670 -0.000742 -0.000652 0.002391 0.001391 0.001583
0.468500 -0.000674 -0.000746 -0.000656 0.002398 0.001395 0.001586
0.471200 -0.000677 -0.000750 -0.000660 0.002405 0.001399 0.001588
0.474000 -0.000681 -0.000754 -0.000665 0.002413 0.001404 0.001591
0.476700 -0.000685 -0.000758 -0.000669 0.002420 0.001408 0.001593
0.479500 -0.000689 -0.000762 -0.000673 0.002427 0.001412 0.001596
0.482200 -0.000692 -0.000766 -0.000677 0.002434 0.001417 0.001598
0.484900 -0.000696 -0.000770 -0.000681 0.002441 0.001421 0.001600
0.487700 -0.000700 -0.000774 -0.000685 0.002449 0.001425 0.001603
0.490400 -0.000704 -0.000778 -0.000689 0.002456 0.001429 0.001605
0.493200 -0.000707 -0.000782 -0.000693 0.002463 0.001433 0.001608
0.495900 -0.000711 -0.000786 -0.000697 0.002470 0.001438 0.001610
0.498600 -0.000715 -0.000790 -0.000701 0.002477 0.001442 0.001613
0.501400 -0.000719 -0.000794 -0.000705 0.002484 0.001446 0.001615
0.504100 -0.000722 -0.000798 -0.000709 0.002491 0.001450 0.001618
0.506900 -0.000726 -0.000802 -0.000713 0.002498 0.001454 0.001620
0.509600 -0.000730 -0.000806 -0.000717 0.002505 0.001458 0.001622
0.512300 -0.000734 -0.000810 -0.000722 0.002511 0.001462 0.001625
0.517800 -0.000741 -0.000818 -0.000730 0.002525 0.001470 0.001630
0.520600 -0.000745 -0.000822 -0.000734 0.002532 0.001474 0.001632
0.523300 -0.000749 -0.000826 -0.000738 0.002539 0.001478 0.001634
0.526000 -0.000753 -0.000830 -0.000742 0.002546 0.001482 0.001637
0.528800 -0.000756 -0.000834 -0.000746 0.002552 0.001486 0.001639
0.531500 -0.000760 -0.000838 -0.000750 0.002559 0.001489 0.001642
0.534300 -0.000764 -0.000842 -0.000754 0.002566 0.001493 0.001644
0.537000 -0.000768 -0.000846 -0.000758 0.002572 0.001497 0.001646
0.539700 -0.000771 -0.000850 -0.000762 0.002579 0.001501 0.001649
0.542500 -0.000775 -0.000854 -0.000766 0.002586 0.001505 0.001651
0.545200 -0.000779 -0.000857 -0.000770 0.002592 0.001508 0.001653
0.547900 -0.000783 -0.000861 -0.000774 0.002599 0.001512 0.001656
0.550700 -0.000787 -0.000865 -0.000779 0.002605 0.001516 0.001658
0.553400 -0.000790 -0.000869 -0.000783 0.002612 0.001519 0.001660
0.556200 -0.000794 -0.000873 -0.000787 0.002619 0.001523 0.001663
0.558900 -0.000798 -0.000877 -0.000791 0.002625 0.001527 0.001665
0.561600 -0.000802 -0.000881 -0.000795 0.002631 0.001530 0.001667
0.564400 -0.000806 -0.000885 -0.000799 0.002638 0.001534 0.001669
0.567100 -0.000809 -0.000889 -0.000803 0.002644 0.001538 0.001672
0.569900 -0.000813 -0.000892 -0.000807 0.002651 0.001541 0.001674
0.572600 -0.000817 -0.000896 -0.000811 0.002657 0.001545 0.001676
0.575300 -0.000821 -0.000900 -0.000815 0.002663 0.001548 0.001678
0.578100 -0.000825 -0.000904 -0.000819 0.002670 0.001552 0.001681
0.580800 -0.000828 -0.000908 -0.000823 0.002676 0.001555 0.001683
0.583600 -0.000832 -0.000912 -0.000828 0.002682 0.001559 0.001685
0.586300 -0.000836 -0.000916 -0.000832 0.002688 0.001562 0.001687
0.589000 -0.000840 -0.000919 -0.000836 0.002695 0.001566 0.001689
0.591800 -0.000844 -0.000923 -0.000840 0.002701 0.001569 0.001692
0.594500 -0.000847 -0.000927 -0.000844 0.002707 0.001572 0.001694
0.597300 -0.000851 -0.000931 -0.000848 0.002713 0.001576 0.001696
0.600000 -0.000855 -0.000935 -0.000852 0.002719 0.001579 0.001698
0.602700 -0.000859 -0.000938 -0.000856 0.002725 0.001583 0.001700
0.605500 -0.000863 -0.000942 -0.000860 0.002732 0.001586 0.001703
0.608200 -0.000866 -0.000946 -0.000864 0.002738 0.001589 0.001705
0.611000 -0.000870 -0.000950 -0.000868 0.002744 0.001593 0.001707
0.613700 -0.000874 -0.000954 -0.000872 0.002750 0.001596 0.001709
0.616400 -0.000878 -0.000957 -0.000876 0.002756 0.001599 0.001711
0.619200 -0.000882 -0.000961 -0.000881 0.002762 0.001602 0.001713
0.621900 -0.000885 -0.000965 -0.000885 0.002768 0.001605 0.001716
0.624700 -0.000889 -0.000969 -0.000889 0.002774 0.001609 0.001718
0.627400 -0.000893 -0.000973 -0.000893 0.002780 0.001612 0.001720
0.630100 -0.000897 -0.000976 -0.000897 0.002785 0.001615 0.001722
0.632900 -0.000901 -0.000980 -0.000901 0.002791 0.001618 0.001724
0.635600 -0.000904 -0.000984 -0.000905 0.002797 0.001621 0.001726
0.638400 -0.000908 -0.000988 -0.000909 0.002803 0.001624 0.001728
0.641100 -0.000912 -0.000991 -0.000913 0.002809 0.001628 0.001730
0.643800 -0.000916 -0.000995 -0.000917 0.002814 0.001631 0.001732
0.646600 -0.000920 -0.000999 -0.000921 0.002820 0.001634 0.001734
0.649300 -0.000923 -0.001002 -0.000925 0.002826 0.001637 0.001736
0.652100 -0.000927 -0.001006 -0.000929 0.002832 0.001640 0.001739
0.654800 -0.000931 -0.001010 -0.000933 0.002837 0.001643 0.001741
0.657500 -0.000935 -0.001014 -0.000937 0.002843 0.001646 0.001743
0.660300 -0.000938 -0.001017 -0.000941 0.002849 0.001649 0.001745
0.663000 -0.000942 -0.001021 -0.000945 0.002854 0.001652 0.001747
0.665800 -0.000946 -0.001025 -0.000950 0.002860 0.001655 0.001749
0.668500 -0.000950 -0.001028 -0.000954 0.002866 0.001658 0.001751
0.671200 -0.000954 -0.001032 -0.000958 0.002871 0.001660 0.001753
0.674000 -0.000957 -0.001036 -0.000962 0.002877 0.001663 0.001755
0.676700 -0.000961 -0.001039 -0.000966 0.002882 0.001666 0.001757
0.679500 -0.000965 -0.001043 -0.000970 0.002888 0.001669 0.001759
0.682200 -0.000969 -0.001047 -0.000974 0.002893 0.001672 0.001761
0.684900 -0.000973 -0.001050 -0.000978 0.002899 0.001675 0.001763
0.687700 -0.000976 -0.001054 -0.000982 0.002904 0.001678 0.001765
0.690400 -0.000980 -0.001058 -0.000986 0.002909 0.001680 0.001766
0.693200 -0.000984 -0.001061 -0.000990 0.002915 0.001683 0.001768
0.695900 -0.000988 -0.001065 -0.000994 0.002920 0.001686 0.001770
0.698600 -0.000991 -0.001069 -0.000998 0.002926 0.001689 0.001772
0.701400 -0.000995 -0.001072 -0.001002 0.002931 0.001691 0.001774
0.704100 -0.000999 -0.001076 -0.001006 0.002936 0.001694 0.001776
0.706900 -0.001003 -0.001080 -0.001010 0.002942 0.001697 0.001778
0.709600 -0.001007 -0.001083 -0.001014 0.002947 0.001700 0.001780
0.712300 -0.001010 -0.001087 -0.001018 0.002952 0.001702 0.001782
0.715100 -0.001014 -0.001090 -0.001022 0.002957 0.001705 0.001784
0.717800 -0.001018 -0.001094 -0.001026 0.002963 0.001708 0.001786
0.720600 -0.001022 -0.001098 -0.001030 0.002968 0.001710 0.001788
0.723300 -0.001026 -0.001101 -0.001034 0.002973 0.001713 0.001789
0.726000 -0.001029 -0.001105 -0.001038 0.002978 0.001715 0.001791
0.728800 -0.001033 -0.001108 -0.001042 0.002983 0.001718 0.001793
0.731500 -0.001037 -0.001112 -0.001046 0.002988 0.001721 0.001795
0.734300 -0.001041 -0.001116 -0.001050 0.002993 0.001723 0.001797
0.737000 -0.001044 -0.001119 -0.001054 0.002998 0.001726 0.001799
0.739700 -0.001048 -0.001123 -0.001058 0.003003 0.001728 0.001801
0.742500 -0.001052 -0.001126 -0.001062 0.003009 0.001731 0.001802
0.745200 -0.001056 -0.001130 -0.001066 0.003013 0.001733 0.001804
0.747900 -0.001059 -0.001133 -0.001070 0.003018 0.001736 0.001806
0.783600 -0.001108 -0.001179 -0.001123 0.003081 0.001767 0.001829
0.786300 -0.001112 -0.001183 -0.001126 0.003086 0.001769 0.001831
0.789000 -0.001116 -0.001186 -0.001130 0.003091 0.001771 0.001833
0.791800 -0.001120 -0.001190 -0.001134 0.003095 0.001774 0.001834
0.794500 -0.001123 -0.001193 -0.001138 0.003100 0.001776 0.001836
0.797300 -0.001127 -0.001197 -0.001142 0.003105 0.001778 0.001838
0.800000 -0.001131 -0.001200 -0.001146 0.003109 0.001781 0.001839
0.802700 -0.001135 -0.001203 -0.001150 0.003114 0.001783 0.001841
0.805500 -0.001138 -0.001207 -0.001154 0.003118 0.001785 0.001843
0.808200 -0.001142 -0.001210 -0.001158 0.003123 0.001787 0.001844
0.811000 -0.001146 -0.001214 -0.001162 0.003128 0.001789 0.001846
0.813700 -0.001150 -0.001217 -0.001166 0.003132 0.001792 0.001848
0.816400 -0.001153 -0.001221 -0.001170 0.003136 0.001794 0.001850
0.819200 -0.001157 -0.001224 -0.001174 0.003141 0.001796 0.001851
0.821900 -0.001161 -0.001228 -0.001178 0.003145 0.001798 0.001853
0.824700 -0.001165 -0.001231 -0.001182 0.003150 0.001800 0.001855
0.827400 -0.001168 -0.001235 -0.001186 0.003154 0.001802 0.001856
0.830100 -0.001172 -0.001238 -0.001190 0.003159 0.001804 0.001858
0.832900 -0.001176 -0.001241 -0.001194 0.003163 0.001807 0.001859
0.835600 -0.001179 -0.001245 -0.001198 0.003167 0.001809 0.001861
0.838400 -0.001183 -0.001248 -0.001202 0.003172 0.001811 0.001863
0.841100 -0.001187 -0.001252 -0.001206 0.003176 0.001813 0.001864
0.843800 -0.001191 -0.001255 -0.001210 0.003180 0.001815 0.001866
0.846600 -0.001194 -0.001258 -0.001214 0.003185 0.001817 0.001868
0.849300 -0.001198 -0.001262 -0.001218 0.003189 0.001819 0.001869
0.852100 -0.001202 -0.001265 -0.001222 0.003193 0.001821 0.001871
0.854800 -0.001205 -0.001269 -0.001226 0.003197 0.001823 0.001872
0.857500 -0.001209 -0.001272 -0.001229 0.003201 0.001825 0.001874
