# time (yr) north(m) east(m) up(m) northsigma(m) eastsigma(m) upsigma(m)
0.000000 0.000000 0.000000 0.000000 0.003044 0.004793 0.000712
0.002700 -0.000504 0.000171 0.000048 0.003059 0.004875 0.000713
0.005500 -0.001001 0.000341 0.000097 0.003099 0.005061 0.000717
0.008200 -0.001460 0.000499 0.000143 0.003153 0.005275 0.000723
0.011000 -0.001915 0.000658 0.000191 0.003219 0.005499 0.000731
0.013700 -0.002336 0.000807 0.000237 0.003287 0.005705 0.000740
0.016400 -0.002741 0.000952 0.000283 0.003358 0.005893 0.000750
0.019200 -0.003146 0.001099 0.000329 0.003432 0.006068 0.000761
0.021900 -0.003522 0.001238 0.000374 0.003502 0.006218 0.000773
0.024700 -0.003899 0.001379 0.000420 0.003572 0.006354 0.000785
0.027400 -0.004251 0.001513 0.000464 0.003637 0.006468 0.000798
0.030100 -0.004591 0.001645 0.000508 0.003699 0.006567 0.000811
0.032900 -0.004934 0.001779 0.000553 0.003760 0.006656 0.000824
0.035600 -0.005254 0.001906 0.000596 0.003814 0.006730 0.000837
0.038400 -0.005577 0.002036 0.000640 0.003867 0.006796 0.000850
0.041100 -0.005880 0.002160 0.000682 0.003915 0.006851 0.000863
0.043800 -0.006174 0.002282 0.000724 0.003959 0.006898 0.000876
0.046600 -0.006472 0.002407 0.000768 0.004002 0.006939 0.000889
0.049300 -0.006751 0.002526 0.000809 0.004039 0.006973 0.000902
0.052100 -0.007034 0.002647 0.000852 0.004075 0.007003 0.000914
0.054800 -0.007300 0.002763 0.000893 0.004106 0.007027 0.000927
0.057500 -0.007560 0.002877 0.000934 0.004135 0.007048 0.000939
0.060300 -0.007823 0.002994 0.000976 0.004162 0.007066 0.000951
0.063000 -0.008071 0.003106 0.001017 0.004186 0.007081 0.000963
0.065800 -0.008322 0.003220 0.001058 0.004208 0.007093 0.000975
0.068500 -0.008560 0.003329 0.001098 0.004227 0.007103 0.000986
0.071200 -0.008792 0.003437 0.001138 0.004245 0.007112 0.000997
0.074000 -0.009028 0.003548 0.001179 0.004260 0.007119 0.001008
0.076700 -0.009251 0.003653 0.001218 0.004274 0.007124 0.001019
0.079500 -0.009478 0.003761 0.001259 0.004286 0.007129 0.001030
0.082200 -0.009692 0.003863 0.001298 0.004297 0.007132 0.001041
0.084900 -0.009902 0.003965 0.001336 0.004306 0.007135 0.001051
0.087700 -0.010116 0.004069 0.001376 0.004314 0.007137 0.001062
0.090400 -0.010318 0.004169 0.001415 0.004320 0.007139 0.001072
0.093200 -0.010524 0.004271 0.001454 0.004326 0.007140 0.001082
0.095900 -0.010719 0.004368 0.001492 0.004330 0.007141 0.001092
0.098600 -0.010911 0.004464 0.001530 0.004333 0.007141 0.001101
0.101400 -0.011106 0.004562 0.001569 0.004336 0.007142 0.001111
0.104100 -0.011292 0.004656 0.001606 0.004338 0.007142 0.001121
0.106900 -0.011480 0.004753 0.001645 0.004339 0.007141 0.001131
0.109600 -0.011659 0.004844 0.001682 0.004339 0.007141 0.001140
0.112300 -0.011836 0.004935 0.001719 0.004339 0.007141 0.001150
0.115100 -0.012015 0.005029 0.001757 0.004338 0.007140 0.001159
0.117800 -0.012186 0.005118 0.001794 0.004337 0.007140 0.001168
0.120600 -0.012360 0.005209 0.001831 0.004335 0.007139 0.001178
0.123300 -0.012526 0.005296 0.001868 0.004333 0.007138 0.001187
0.126000 -0.012688 0.005382 0.001904 0.004331 0.007138 0.001196
0.128800 -0.012855 0.005471 0.001941 0.004328 0.007137 0.001206
0.131500 -0.013013 0.005555 0.001977 0.004325 0.007137 0.001215
0.134300 -0.013175 0.005642 0.002014 0.004321 0.007136 0.001224
0.137000 -0.013328 0.005724 0.002049 0.004318 0.007136 0.001233
0.139700 -0.013480 0.005806 0.002085 0.004314 0.007135 0.001242
0.142500 -0.013635 0.005890 0.002121 0.004310 0.007135 0.001252
0.145200 -0.013782 0.005970 0.002156 0.004306 0.007134 0.001261
0.147900 -0.013928 0.006050 0.002191 0.004302 0.007134 0.001270
0.150700 -0.014077 0.006131 0.002227 0.004297 0.007133 0.001279
0.153400 -0.014218 0.006209 0.002262 0.004293 0.007133 0.001289
0.156200 -0.014363 0.006289 0.002298 0.004288 0.007133 0.001298
0.158900 -0.014502 0.006365 0.002332 0.004284 0.007132 0.001307
0.161600 -0.014638 0.006441 0.002367 0.004279 0.007132 0.001317
0.164400 -0.014778 0.006519 0.002402 0.004275 0.007132 0.001326
0.167100 -0.014911 0.006593 0.002436 0.004270 0.007132 0.001336
0.169900 -0.015047 0.006669 0.002471 0.004266 0.007132 0.001345
0.172600 -0.015177 0.006742 0.002505 0.004261 0.007131 0.001355
0.175300 -0.015305 0.006814 0.002538 0.004257 0.007131 0.001364
0.178100 -0.015437 0.006888 0.002573 0.004252 0.007131 0.001374
0.180800 -0.015563 0.006959 0.002606 0.004248 0.007131 0.001383
0.183600 -0.015691 0.007032 0.002641 0.004243 0.007131 0.001393
0.186300 -0.015814 0.007102 0.002674 0.004239 0.007131 0.001403
0.189000 -0.015936 0.007171 0.002707 0.004235 0.007131 0.001413
0.191800 -0.016060 0.007242 0.002741 0.004231 0.007131 0.001423
0.194500 -0.016179 0.007309 0.002774 0.004227 0.007131 0.001433
0.197300 -0.016301 0.007379 0.002807 0.004222 0.007131 0.001443
0.200000 -0.016418 0.007446 0.002840 0.004218 0.007131 0.001453
0.202700 -0.016533 0.007512 0.002872 0.004215 0.007131 0.001463
0.205500 -0.016652 0.007580 0.002906 0.004211 0.007131 0.001473
0.208200 -0.016765 0.007645 0.002938 0.004207 0.007131 0.001483
0.211000 -0.016881 0.007712 0.002971 0.004203 0.007131 0.001493
0.213700 -0.016992 0.007776 0.003003 0.004200 0.007131 0.001504
0.216400 -0.017102 0.007840 0.003035 0.004196 0.007131 0.001514
0.219200 -0.017214 0.007905 0.003067 0.004193 0.007131 0.001524
0.221900 -0.017322 0.007968 0.003099 0.004189 0.007131 0.001535
0.224700 -0.017433 0.008032 0.003132 0.004186 0.007131 0.001546
0.227400 -0.017539 0.008094 0.003163 0.004183 0.007131 0.001556
0.230100 -0.017644 0.008155 0.003194 0.004180 0.007131 0.001566
0.232900 -0.017752 0.008218 0.003226 0.004177 0.007132 0.001577
0.235600 -0.017856 0.008278 0.003257 0.004174 0.007132 0.001588
0.238400 -0.017962 0.008340 0.003289 0.004171 0.007132 0.001599
0.241100 -0.018064 0.008399 0.003320 0.004168 0.007132 0.001610
0.243800 -0.018164 0.008458 0.003351 0.004165 0.007132 0.001620
0.246600 -0.018268 0.008519 0.003382 0.004163 0.007132 0.001631
0.249300 -0.018367 0.008577 0.003413 0.004160 0.007132 0.001642
0.252100 -0.018470 0.008637 0.003444 0.004158 0.007132 0.001653
0.254800 -0.018567 0.008694 0.003474 0.004155 0.007132 0.001664
0.257500 -0.018664 0.008751 0.003505 0.004153 0.007132 0.001675
0.260300 -0.018764 0.008810 0.003536 0.004151 0.007132 0.001687
0.263000 -0.018860 0.008866 0.003566 0.004148 0.007131 0.001698
0.265800 -0.018958 0.008924 0.003596 0.004146 0.007131 0.001709
0.268500 -0.019053 0.008979 0.003626 0.004144 0.007131 0.001720
0.271200 -0.019146 0.009035 0.003656 0.004142 0.007131 0.001731
0.274000 -0.019243 0.009091 0.003686 0.004140 0.007131 0.001743
0.276700 -0.019335 0.009146 0.003716 0.004138 0.007131 0.001754
0.279500 -0.019430 0.009202 0.003746 0.004136 0.007131 0.001766
0.282200 -0.019521 0.009256 0.003775 0.004135 0.007131 0.001777
0.284900 -0.019612 0.009309 0.003804 0.004133 0.007131 0.001788
0.287700 -0.019705 0.009364 0.003834 0.004131 0.007131 0.001800
0.290400 -0.019795 0.009417 0.003863 0.004129 0.007131 0.001811
0.293200 -0.019887 0.009471 0.003893 0.004128 0.007130 0.001823
0.295900 -0.019975 0.009523 0.003922 0.004126 0.007130 0.001834
0.298600 -0.020063 0.009575 0.003950 0.004125 0.007130 0.001846
0.301400 -0.020154 0.009629 0.003980 0.004123 0.007130 0.001857
0.304100 -0.020240 0.009680 0.004008 0.004122 0.007130 0.001869
0.306900 -0.020330 0.009733 0.004037 0.004121 0.007130 0.001881
0.309600 -0.020416 0.009784 0.004065 0.004119 0.007129 0.001892
0.312300 -0.020501 0.009834 0.004094 0.004118 0.007129 0.001904
0.315100 -0.020589 0.009886 0.004123 0.004117 0.007129 0.001916
0.317800 -0.020674 0.009936 0.004150 0.004116 0.007129 0.001927
0.320600 -0.020761 0.009987 0.004179 0.004114 0.007129 0.001939
0.323300 -0.020844 0.010037 0.004207 0.004113 0.007128 0.001951
0.326000 -0.020928 0.010086 0.004235 0.004112 0.007128 0.001962
0.328800 -0.021013 0.010137 0.004263 0.004111 0.007128 0.001974
0.331500 -0.021096 0.010185 0.004290 0.004110 0.007128 0.001986
0.334300 -0.021181 0.010235 0.004319 0.004109 0.007127 0.001998
0.337000 -0.021262 0.010283 0.004346 0.004108 0.007127 0.002009
0.339700 -0.021343 0.010331 0.004373 0.004107 0.007127 0.002021
0.342500 -0.021427 0.010381 0.004401 0.004106 0.007127 0.002033
0.345200 -0.021508 0.010428 0.004428 0.004105 0.007126 0.002044
0.347900 -0.021588 0.010475 0.004455 0.004104 0.007126 0.002056
0.350700 -0.021670 0.010524 0.004483 0.004103 0.007126 0.002068
0.353400 -0.021750 0.010571 0.004509 0.004102 0.007126 0.002079
0.356200 -0.021832 0.010619 0.004537 0.004102 0.007125 0.002091
0.358900 -0.021910 0.010665 0.004563 0.004101 0.007125 0.002103
0.361600 -0.021989 0.010711 0.004590 0.004100 0.007125 0.002114
0.364400 -0.022070 0.010759 0.004617 0.004099 0.007125 0.002126
0.367100 -0.022147 0.010805 0.004643 0.004099 0.007124 0.002138
0.369900 -0.022228 0.010852 0.004670 0.004098 0.007124 0.002150
0.372600 -0.022305 0.010897 0.004696 0.004097 0.007124 0.002161
0.375300 -0.022382 0.010942 0.004722 0.004096 0.007124 0.002173
0.378100 -0.022461 0.010989 0.004749 0.004096 0.007123 0.002185
0.380800 -0.022537 0.011034 0.004775 0.004095 0.007123 0.002196
0.383600 -0.022616 0.011080 0.004802 0.004094 0.007123 0.002208
0.386300 -0.022691 0.011124 0.004827 0.004094 0.007123 0.002220
0.389000 -0.022767 0.011168 0.004853 0.004093 0.007122 0.002231
0.391800 -0.022845 0.011214 0.004879 0.004093 0.007122 0.002243
0.394500 -0.022920 0.011258 0.004904 0.004092 0.007122 0.002254
0.397300 -0.022997 0.011303 0.004930 0.004091 0.007122 0.002266
0.400000 -0.023071 0.011346 0.004956 0.004091 0.007121 0.002278
0.402700 -0.023145 0.011390 0.004981 0.004090 0.007121 0.002289
0.405500 -0.023222 0.011434 0.005007 0.004090 0.007121 0.002301
0.408200 -0.023295 0.011477 0.005032 0.004089 0.007121 0.002312
0.411000 -0.023371 0.011522 0.005057 0.004089 0.007120 0.002324
0.413700 -0.023444 0.011564 0.005082 0.004088 0.007120 0.002335
0.416400 -0.023517 0.011607 0.005107 0.004088 0.007120 0.002346
0.419200 -0.023593 0.011651 0.005132 0.004087 0.007120 0.002358
0.421900 -0.023665 0.011693 0.005157 0.004087 0.007119 0.002369
0.424700 -0.023740 0.011736 0.005182 0.004087 0.007119 0.002381
0.427400 -0.023812 0.011778 0.005206 0.004086 0.007119 0.002392
0.430100 -0.023884 0.011820 0.005231 0.004086 0.007119 0.002403
0.432900 -0.023958 0.011863 0.005256 0.004085 0.007119 0.002415
0.435600 -0.024029 0.011905 0.005280 0.004085 0.007118 0.002426
0.438400 -0.024103 0.011947 0.005305 0.004085 0.007118 0.002437
0.441100 -0.024174 0.011989 0.005328 0.004084 0.007118 0.002448
0.443800 -0.024245 0.012030 0.005352 0.004084 0.007118 0.002459
0.446600 -0.024318 0.012072 0.005377 0.004084 0.007118 0.002471
0.449300 -0.024388 0.012113 0.005401 0.004083 0.007118 0.002482
0.452100 -0.024461 0.012155 0.005425 0.004083 0.007118 0.002493
0.454800 -0.024531 0.012195 0.005449 0.004083 0.007117 0.002504
0.457500 -0.024601 0.012236 0.005472 0.004082 0.007117 0.002515
0.460300 -0.024673 0.012277 0.005496 0.004082 0.007117 0.002526
0.463000 -0.024742 0.012317 0.005519 0.004082 0.007117 0.002537
0.465800 -0.024814 0.012359 0.005544 0.004082 0.007117 0.002548
0.468500 -0.024883 0.012399 0.005567 0.004081 0.007117 0.002559
0.471200 -0.024952 0.012438 0.005590 0.004081 0.007117 0.002570
0.474000 -0.025024 0.012479 0.005614 0.004081 0.007117 0.002581
0.476700 -0.025092 0.012519 0.005636 0.004081 0.007117 0.002592
0.479500 -0.025163 0.012560 0.005660 0.004081 0.007117 0.002603
0.482200 -0.025231 0.012599 0.005683 0.004080 0.007117 0.002613
0.484900 -0.025299 0.012638 0.005705 0.004080 0.007117 0.002624
0.487700 -0.025370 0.012678 0.005729 0.004080 0.007117 0.002635
0.490400 -0.025438 0.012717 0.005751 0.004080 0.007117 0.002646
0.493200 -0.025508 0.012757 0.005775 0.004080 0.007116 0.002656
0.495900 -0.025575 0.012796 0.005797 0.004080 0.007116 0.002667
0.498600 -0.025643 0.012835 0.005819 0.004080 0.007117 0.002677
0.501400 -0.025712 0.012875 0.005842 0.004080 0.007117 0.002688
0.504100 -0.025779 0.012913 0.005864 0.004080 0.007117 0.002698
0.506900 -0.025849 0.012953 0.005887 0.004079 0.007117 0.002709
0.509600 -0.025915 0.012991 0.005909 0.004079 0.007117 0.002720
0.512300 -0.025982 0.013029 0.005931 0.004079 0.007117 0.002730
0.517800 -0.026117 0.013106 0.005975 0.004079 0.007117 0.002751
0.520600 -0.026186 0.013145 0.005998 0.004080 0.007117 0.002761
0.523300 -0.026252 0.013183 0.006020 0.004080 0.007117 0.002771
0.526000 -0.026318 0.013220 0.006041 0.004080 0.007117 0.002781
0.528800 -0.026386 0.013259 0.006063 0.004080 0.007117 0.002792
0.531500 -0.026452 0.013297 0.006085 0.004080 0.007117 0.002802
0.534300 -0.026520 0.013335 0.006107 0.004080 0.007118 0.002812
0.537000 -0.026585 0.013373 0.006128 0.004080 0.007118 0.002822
0.539700 -0.026651 0.013410 0.006149 0.004080 0.007118 0.002832
0.542500 -0.026718 0.013448 0.006171 0.004080 0.007118 0.002842
0.545200 -0.026783 0.013485 0.006192 0.004081 0.007118 0.002852
0.547900 -0.026848 0.013522 0.006213 0.004081 0.007118 0.002862
0.550700 -0.026915 0.013560 0.006235 0.004081 0.007119 0.002872
0.553400 -0.026980 0.013597 0.006256 0.004081 0.007119 0.002882
0.556200 -0.027047 0.013634 0.006277 0.004081 0.007119 0.002892
0.558900 -0.027111 0.013671 0.006298 0.004082 0.007119 0.002902
0.561600 -0.027176 0.013707 0.006318 0.004082 0.007119 0.002911
0.564400 -0.027242 0.013745 0.006340 0.004082 0.007120 0.002921
0.567100 -0.027306 0.013781 0.006360 0.004083 0.007120 0.002931
0.569900 -0.027373 0.013819 0.006381 0.004083 0.007120 0.002941
0.572600 -0.027437 0.013855 0.006402 0.004083 0.007121 0.002950
0.575300 -0.027500 0.013891 0.006422 0.004084 0.007121 0.002960
0.578100 -0.027567 0.013928 0.006443 0.004084 0.007121 0.002969
0.580800 -0.027630 0.013964 0.006463 0.004084 0.007121 0.002979
0.583600 -0.027696 0.014001 0.006484 0.004085 0.007122 0.002988
0.586300 -0.027759 0.014037 0.006504 0.004085 0.007122 0.002998
0.589000 -0.027822 0.014073 0.006524 0.004086 0.007123 0.003007
0.591800 -0.027888 0.014110 0.006544 0.004086 0.007123 0.003016
0.594500 -0.027951 0.014145 0.006564 0.004087 0.007123 0.003026
0.597300 -0.028016 0.014182 0.006584 0.004087 0.007124 0.003035
0.600000 -0.028079 0.014217 0.006604 0.004088 0.007124 0.003044
0.602700 -0.028142 0.014253 0.006624 0.004088 0.007124 0.003053
0.605500 -0.028207 0.014289 0.006644 0.004089 0.007125 0.003063
0.608200 -0.028269 0.014324 0.006663 0.004090 0.007125 0.003072
0.611000 -0.028334 0.014361 0.006683 0.004090 0.007126 0.003081
0.613700 -0.028396 0.014396 0.006703 0.004091 0.007126 0.003090
0.616400 -0.028459 0.014431 0.006722 0.004091 0.007127 0.003099
0.619200 -0.028523 0.014467 0.006742 0.004092 0.007127 0.003108
0.621900 -0.028585 0.014502 0.006761 0.004093 0.007127 0.003117
0.624700 -0.028649 0.014538 0.006781 0.004094 0.007128 0.003126
0.627400 -0.028711 0.014572 0.006800 0.004094 0.007128 0.003135
0.630100 -0.028773 0.014607 0.006819 0.004095 0.007129 0.003143
0.632900 -0.028837 0.014643 0.006838 0.004096 0.007129 0.003152
0.635600 -0.028898 0.014677 0.006857 0.004097 0.007130 0.003161
0.638400 -0.028962 0.014713 0.006876 0.004097 0.007131 0.003170
0.641100 -0.029024 0.014748 0.006895 0.004098 0.007131 0.003179
0.643800 -0.029085 0.014782 0.006914 0.004099 0.007132 0.003187
0.646600 -0.029148 0.014818 0.006933 0.004100 0.007132 0.003196
0.649300 -0.029210 0.014852 0.006951 0.004101 0.007133 0.003204
0.652100 -0.029273 0.014887 0.006971 0.004102 0.007133 0.003213
0.654800 -0.029334 0.014921 0.006989 0.004103 0.007134 0.003222
0.657500 -0.029395 0.014955 0.007007 0.004104 0.007135 0.003230
0.660300 -0.029458 0.014991 0.007026 0.004105 0.007135 0.003238
0.663000 -0.029518 0.015025 0.007044 0.004106 0.007136 0.003247
0.665800 -0.029581 0.015060 0.007063 0.004107 0.007136 0.003255
0.668500 -0.029642 0.015094 0.007081 0.004108 0.007137 0.003263
0.671200 -0.029702 0.015127 0.007099 0.004109 0.007138 0.003272
0.674000 -0.029765 0.015162 0.007118 0.004110 0.007138 0.003280
0.676700 -0.029825 0.015196 0.007135 0.004111 0.007139 0.003288
0.679500 -0.029888 0.015231 0.007154 0.004112 0.007140 0.003297
0.682200 -0.029948 0.015265 0.007172 0.004113 0.007140 0.003305
0.684900 -0.030008 0.015298 0.007189 0.004114 0.007141 0.003313
0.687700 -0.030070 0.015333 0.007208 0.004116 0.007142 0.003321
0.690400 -0.030130 0.015366 0.007225 0.004117 0.007142 0.003329
0.693200 -0.030192 0.015401 0.007243 0.004118 0.007143 0.003337
0.695900 -0.030251 0.015434 0.007261 0.004119 0.007144 0.003345
0.698600 -0.030311 0.015468 0.007278 0.004121 0.007145 0.003353
0.701400 -0.030373 0.015502 0.007296 0.004122 0.007145 0.003361
0.704100 -0.030432 0.015535 0.007313 0.004123 0.007146 0.003368
0.706900 -0.030494 0.015570 0.007331 0.004125 0.007147 0.003376
0.709600 -0.030553 0.015603 0.007348 0.004126 0.007148 0.003384
0.712300 -0.030612 0.015636 0.007365 0.004127 0.007148 0.003392
0.715100 -0.030674 0.015670 0.007383 0.004129 0.007149 0.003400
0.717800 -0.030733 0.015703 0.007400 0.004130 0.007150 0.003407
0.720600 -0.030794 0.015737 0.007418 0.004132 0.007151 0.003415
0.723300 -0.030853 0.015770 0.007434 0.004133 0.007152 0.003422
0.726000 -0.030912 0.015803 0.007451 0.004135 0.007153 0.003430
0.728800 -0.030973 0.015837 0.007469 0.004136 0.007153 0.003438
0.731500 -0.031032 0.015870 0.007485 0.004138 0.007154 0.003445
0.734300 -0.031092 0.015904 0.007502 0.004139 0.007155 0.003453
0.737000 -0.031151 0.015936 0.007519 0.004141 0.007156 0.003460
0.739700 -0.031209 0.015969 0.007536 0.004142 0.007157 0.003467
0.742500 -0.031270 0.016003 0.007553 0.004144 0.007158 0.003475
0.745200 -0.031328 0.016035 0.007569 0.004145 0.007159 0.003482
0.747900 -0.031387 0.016068 0.007585 0.004147 0.007159 0.003489
0.750700 -0.031447 0.016101 0.007602 0.004149 0.007160 0.003497
0.753400 -0.031505 0.016134 0.007618 0.004150 0.007161 0.003504
0.756200 -0.031565 0.016167 0.007635 0.004152 0.007162 0.003511
0.758900 -0.031623 0.016200 0.007651 0.004154 0.007163 0.003518
0.761600 -0.031681 0.016232 0.007667 0.004156 0.007164 0.003525
0.764400 -0.031741 0.016266 0.007684 0.004157 0.007165 0.003532
0.767100 -0.031799 0.016298 0.007700 0.004159 0.007166 0.003539
0.769900 -0.031859 0.016331 0.007716 0.004161 0.007167 0.003547
0.772600 -0.031917 0.016363 0.007732 0.004163 0.007168 0.003553
0.775300 -0.031974 0.016395 0.007748 0.004165 0.007169 0.003560
0.778100 -0.032034 0.016429 0.007764 0.004166 0.007170 0.003567
0.780800 -0.032091 0.016461 0.007780 0.004168 0.007171 0.003574
0.783600 -0.032151 0.016494 0.007796 0.004170 0.007172 0.003581
0.786300 -0.032208 0.016526 0.007812 0.004172 0.007173 0.003588
0.789000 -0.032265 0.016558 0.007827 0.004174 0.007174 0.003595
0.791800 -0.032325 0.016591 0.007843 0.004176 0.007175 0.003602
0.794500 -0.032382 0.016623 0.007859 0.004178 0.007176 0.003608
0.797300 -0.032441 0.016656 0.007875 0.004180 0.007177 0.003615
0.800000 -0.032498 0.016688 0.007890 0.004182 0.007178 0.003622
0.802700 -0.032555 0.016719 0.007905 0.004184 0.007179 0.003628
0.805500 -0.032614 0.016752 0.007921 0.004186 0.007180 0.003635
0.808200 -0.032670 0.016784 0.007936 0.004188 0.007181 0.003641
0.811000 -0.032729 0.016817 0.007952 0.004190 0.007182 0.003648
0.813700 -0.032786 0.016849 0.007967 0.004192 0.007183 0.003654
0.816400 -0.032842 0.016880 0.007982 0.004194 0.007184 0.003661
0.819200 -0.032901 0.016913 0.007997 0.004196 0.007185 0.003667
0.821900 -0.032957 0.016945 0.008012 0.004198 0.007186 0.003674
0.824700 -0.033016 0.016977 0.008027 0.004201 0.007187 0.003680
0.827400 -0.033072 0.017009 0.008042 0.004203 0.007188 0.003687
0.830100 -0.033128 0.017040 0.008057 0.004205 0.007189 0.003693
0.832900 -0.033187 0.017073 0.008072 0.004207 0.007191 0.003699
0.835600 -0.033243 0.017104 0.008087 0.004209 0.007192 0.003705
0.838400 -0.033301 0.017137 0.008102 0.004212 0.007193 0.003712
0.841100 -0.033357 0.017168 0.008116 0.004214 0.007194 0.003718
0.843800 -0.033413 0.017199 0.008131 0.004216 0.007195 0.003724
0.846600 -0.033471 0.017232 0.008146 0.004218 0.007196 0.003730
0.849300 -0.033527 0.017263 0.008160 0.004221 0.007197 0.003736
0.852100 -0.033584 0.017295 0.008175 0.004223 0.007198 0.003742
