# time (yr) north(m) east(m) up(m) northsigma(m) eastsigma(m) upsigma(m)
0.000000 0.000000 0.000000 0.000000 0.002962 0.001254 0.002593
0.002700 -0.000364 0.000094 0.000075 0.002973 0.001257 0.002594
0.005500 -0.000729 0.000190 0.000153 0.003002 0.001263 0.002595
0.008200 -0.001069 0.000281 0.000227 0.003043 0.001272 0.002597
0.011000 -0.001409 0.000373 0.000304 0.003095 0.001285 0.002600
0.013700 -0.001728 0.000461 0.000377 0.003149 0.001299 0.002603
0.016400 -0.002036 0.000546 0.000450 0.003206 0.001316 0.002607
0.019200 -0.002347 0.000633 0.000525 0.003267 0.001335 0.002612
0.021900 -0.002638 0.000716 0.000597 0.003325 0.001354 0.002617
0.024700 -0.002932 0.000800 0.000672 0.003386 0.001376 0.002624
0.027400 -0.003208 0.000880 0.000743 0.003442 0.001397 0.002630
0.030100 -0.003476 0.000958 0.000814 0.003497 0.001419 0.002637
0.032900 -0.003747 0.001038 0.000888 0.003552 0.001443 0.002645
0.035600 -0.004002 0.001113 0.000958 0.003603 0.001465 0.002653
0.038400 -0.004260 0.001190 0.001031 0.003653 0.001489 0.002662
0.041100 -0.004503 0.001264 0.001101 0.003699 0.001512 0.002671
0.043800 -0.004741 0.001336 0.001171 0.003743 0.001535 0.002681
0.046600 -0.004981 0.001409 0.001243 0.003787 0.001559 0.002691
0.049300 -0.005208 0.001479 0.001313 0.003827 0.001581 0.002701
0.052100 -0.005438 0.001550 0.001384 0.003866 0.001604 0.002712
0.054800 -0.005655 0.001617 0.001453 0.003902 0.001627 0.002723
0.057500 -0.005868 0.001683 0.001522 0.003936 0.001648 0.002735
0.060300 -0.006084 0.001751 0.001592 0.003970 0.001671 0.002747
0.063000 -0.006288 0.001816 0.001660 0.004002 0.001692 0.002759
0.065800 -0.006495 0.001881 0.001730 0.004032 0.001713 0.002771
0.068500 -0.006691 0.001944 0.001798 0.004061 0.001734 0.002784
0.071200 -0.006884 0.002005 0.001865 0.004088 0.001754 0.002796
0.074000 -0.007079 0.002068 0.001934 0.004115 0.001774 0.002809
0.076700 -0.007264 0.002128 0.002001 0.004140 0.001793 0.002822
0.079500 -0.007453 0.002189 0.002070 0.004165 0.001813 0.002836
0.082200 -0.007631 0.002247 0.002136 0.004188 0.001831 0.002849
0.084900 -0.007806 0.002304 0.002201 0.004211 0.001849 0.002863
0.087700 -0.007985 0.002363 0.002269 0.004233 0.001867 0.002877
0.090400 -0.008154 0.002418 0.002334 0.004254 0.001884 0.002890
0.093200 -0.008327 0.002475 0.002402 0.004275 0.001901 0.002905
0.095900 -0.008490 0.002530 0.002466 0.004295 0.001917 0.002918
0.098600 -0.008651 0.002583 0.002531 0.004314 0.001933 0.002932
0.101400 -0.008815 0.002638 0.002597 0.004334 0.001949 0.002947
0.104100 -0.008971 0.002690 0.002661 0.004352 0.001964 0.002961
0.106900 -0.009130 0.002743 0.002726 0.004370 0.001980 0.002975
0.109600 -0.009280 0.002793 0.002789 0.004388 0.001994 0.002989
0.112300 -0.009429 0.002843 0.002852 0.004405 0.002008 0.003004
0.115100 -0.009580 0.002895 0.002917 0.004422 0.002022 0.003018
0.117800 -0.009724 0.002943 0.002979 0.004438 0.002035 0.003032
0.120600 -0.009871 0.002993 0.003043 0.004455 0.002049 0.003047
0.123300 -0.010011 0.003041 0.003104 0.004470 0.002061 0.003061
0.126000 -0.010148 0.003088 0.003165 0.004486 0.002073 0.003075
0.128800 -0.010289 0.003136 0.003229 0.004501 0.002086 0.003090
0.131500 -0.010423 0.003181 0.003289 0.004516 0.002097 0.003104
0.134300 -0.010560 0.003228 0.003352 0.004531 0.002109 0.003118
0.137000 -0.010690 0.003273 0.003411 0.004545 0.002120 0.003132
0.139700 -0.010818 0.003317 0.003471 0.004559 0.002130 0.003146
0.142500 -0.010949 0.003362 0.003532 0.004573 0.002141 0.003161
0.145200 -0.011074 0.003406 0.003591 0.004586 0.002151 0.003174
0.147900 -0.011197 0.003448 0.003650 0.004600 0.002161 0.003188
0.150700 -0.011323 0.003492 0.003710 0.004613 0.002171 0.003202
0.153400 -0.011443 0.003534 0.003768 0.004626 0.002180 0.003216
0.156200 -0.011566 0.003576 0.003828 0.004639 0.002189 0.003230
0.158900 -0.011683 0.003617 0.003885 0.004651 0.002198 0.003244
0.161600 -0.011798 0.003657 0.003942 0.004663 0.002207 0.003257
0.164400 -0.011917 0.003699 0.004001 0.004675 0.002215 0.003271
0.167100 -0.012029 0.003738 0.004058 0.004687 0.002223 0.003284
0.169900 -0.012145 0.003779 0.004116 0.004699 0.002231 0.003298
0.172600 -0.012255 0.003817 0.004172 0.004710 0.002239 0.003311
0.175300 -0.012364 0.003855 0.004227 0.004721 0.002246 0.003324
0.178100 -0.012475 0.003895 0.004284 0.004732 0.002254 0.003337
0.180800 -0.012581 0.003932 0.004339 0.004742 0.002261 0.003350
0.183600 -0.012690 0.003970 0.004395 0.004753 0.002268 0.003363
0.186300 -0.012794 0.004007 0.004450 0.004763 0.002274 0.003376
0.189000 -0.012897 0.004043 0.004503 0.004773 0.002281 0.003388
0.191800 -0.013002 0.004081 0.004559 0.004782 0.002287 0.003401
0.194500 -0.013102 0.004116 0.004612 0.004792 0.002293 0.003413
0.197300 -0.013205 0.004153 0.004667 0.004801 0.002299 0.003426
0.200000 -0.013304 0.004187 0.004720 0.004810 0.002305 0.003438
0.202700 -0.013401 0.004222 0.004772 0.004819 0.002310 0.003450
0.205500 -0.013501 0.004257 0.004826 0.004828 0.002316 0.003463
0.208200 -0.013596 0.004291 0.004878 0.004836 0.002321 0.003475
0.211000 -0.013694 0.004326 0.004931 0.004845 0.002326 0.003487
0.213700 -0.013787 0.004359 0.004982 0.004853 0.002331 0.003498
0.216400 -0.013879 0.004392 0.005033 0.004860 0.002336 0.003510
0.219200 -0.013974 0.004426 0.005085 0.004868 0.002341 0.003522
0.221900 -0.014065 0.004458 0.005136 0.004875 0.002345 0.003533
0.224700 -0.014158 0.004492 0.005187 0.004883 0.002350 0.003545
0.227400 -0.014247 0.004523 0.005237 0.004890 0.002354 0.003556
0.230100 -0.014335 0.004555 0.005286 0.004897 0.002358 0.003567
0.232900 -0.014425 0.004587 0.005337 0.004903 0.002362 0.003578
0.235600 -0.014512 0.004618 0.005386 0.004910 0.002366 0.003589
0.238400 -0.014600 0.004650 0.005436 0.004916 0.002370 0.003600
0.241100 -0.014685 0.004680 0.005484 0.004922 0.002373 0.003611
0.243800 -0.014769 0.004710 0.005532 0.004928 0.002377 0.003621
0.246600 -0.014856 0.004741 0.005582 0.004934 0.002380 0.003632
0.249300 -0.014938 0.004771 0.005629 0.004939 0.002384 0.003642
0.252100 -0.015023 0.004801 0.005678 0.004945 0.002387 0.003653
0.254800 -0.015105 0.004831 0.005725 0.004950 0.002390 0.003663
0.257500 -0.015185 0.004859 0.005771 0.004955 0.002393 0.003673
0.260300 -0.015268 0.004889 0.005819 0.004960 0.002396 0.003683
0.263000 -0.015347 0.004918 0.005865 0.004964 0.002399 0.003693
0.265800 -0.015429 0.004947 0.005912 0.004969 0.002401 0.003703
0.268500 -0.015507 0.004975 0.005958 0.004973 0.002404 0.003713
0.271200 -0.015584 0.005003 0.006003 0.004977 0.002407 0.003722
0.274000 -0.015663 0.005031 0.006049 0.004981 0.002409 0.003732
0.276700 -0.015739 0.005059 0.006094 0.004985 0.002411 0.003741
0.279500 -0.015818 0.005087 0.006140 0.004989 0.002414 0.003751
0.282200 -0.015893 0.005114 0.006184 0.004992 0.002416 0.003760
0.284900 -0.015967 0.005140 0.006228 0.004995 0.002418 0.003769
0.287700 -0.016044 0.005168 0.006273 0.004999 0.002420 0.003778
0.290400 -0.016117 0.005194 0.006316 0.005002 0.002422 0.003787
0.293200 -0.016192 0.005222 0.006361 0.005005 0.002424 0.003796
0.295900 -0.016264 0.005248 0.006403 0.005007 0.002426 0.003805
0.298600 -0.016336 0.005273 0.006446 0.005010 0.002428 0.003814
0.301400 -0.016410 0.005300 0.006490 0.005013 0.002430 0.003823
0.304100 -0.016480 0.005325 0.006532 0.005015 0.002432 0.003831
0.306900 -0.016553 0.005352 0.006575 0.005017 0.002433 0.003840
0.309600 -0.016623 0.005377 0.006616 0.005019 0.002435 0.003848
0.312300 -0.016692 0.005402 0.006658 0.005021 0.002436 0.003856
0.315100 -0.016763 0.005427 0.006700 0.005023 0.002438 0.003864
0.317800 -0.016832 0.005452 0.006741 0.005025 0.002439 0.003872
0.320600 -0.016902 0.005477 0.006783 0.005026 0.002441 0.003881
0.323300 -0.016969 0.005501 0.006823 0.005028 0.002442 0.003889
0.326000 -0.017036 0.005525 0.006863 0.005029 0.002444 0.003896
0.328800 -0.017105 0.005550 0.006904 0.005030 0.002445 0.003904
0.331500 -0.017172 0.005574 0.006944 0.005032 0.002446 0.003912
0.334300 -0.017240 0.005599 0.006984 0.005033 0.002447 0.003920
0.337000 -0.017305 0.005622 0.007023 0.005034 0.002448 0.003927
0.339700 -0.017370 0.005645 0.007062 0.005034 0.002449 0.003935
0.342500 -0.017437 0.005670 0.007102 0.005035 0.002451 0.003942
0.345200 -0.017501 0.005693 0.007140 0.005036 0.002452 0.003949
0.347900 -0.017565 0.005715 0.007179 0.005036 0.002453 0.003957
0.350700 -0.017630 0.005739 0.007218 0.005036 0.002454 0.003964
0.353400 -0.017693 0.005762 0.007255 0.005037 0.002455 0.003971
0.356200 -0.017758 0.005785 0.007294 0.005037 0.002455 0.003978
0.358900 -0.017821 0.005807 0.007331 0.005037 0.002456 0.003985
0.361600 -0.017882 0.005830 0.007368 0.005037 0.002457 0.003992
0.364400 -0.017946 0.005853 0.007406 0.005037 0.002458 0.003999
0.367100 -0.018008 0.005875 0.007443 0.005037 0.002459 0.004005
0.369900 -0.018071 0.005897 0.007480 0.005037 0.002460 0.004012
0.372600 -0.018131 0.005919 0.007516 0.005036 0.002460 0.004019
0.375300 -0.018192 0.005941 0.007552 0.005036 0.002461 0.004025
0.378100 -0.018254 0.005963 0.007589 0.005035 0.002462 0.004032
0.380800 -0.018313 0.005984 0.007624 0.005035 0.002462 0.004038
0.383600 -0.018375 0.006007 0.007661 0.005034 0.002463 0.004044
0.386300 -0.018434 0.006028 0.007696 0.005033 0.002464 0.004051
0.389000 -0.018492 0.006049 0.007730 0.005033 0.002464 0.004057
0.391800 -0.018553 0.006070 0.007766 0.005032 0.002465 0.004063
0.394500 -0.018611 0.006091 0.007800 0.005031 0.002465 0.004069
0.397300 -0.018671 0.006113 0.007836 0.005030 0.002466 0.004075
0.400000 -0.018729 0.006133 0.007870 0.005029 0.002467 0.004081
0.402700 -0.018786 0.006154 0.007903 0.005027 0.002467 0.004087
0.405500 -0.018845 0.006175 0.007938 0.005026 0.002468 0.004093
0.408200 -0.018902 0.006195 0.007971 0.005025 0.002468 0.004098
0.411000 -0.018960 0.006216 0.008005 0.005023 0.002469 0.004104
0.413700 -0.019016 0.006236 0.008038 0.005022 0.002469 0.004110
0.416400 -0.019072 0.006256 0.008071 0.005021 0.002470 0.004115
0.419200 -0.019130 0.006277 0.008104 0.005019 0.002470 0.004121
0.421900 -0.019185 0.006297 0.008137 0.005017 0.002471 0.004126
0.424700 -0.019243 0.006317 0.008170 0.005016 0.002471 0.004131
0.427400 -0.019298 0.006337 0.008202 0.005014 0.002472 0.004137
0.430100 -0.019352 0.006356 0.008233 0.005012 0.002472 0.004142
0.432900 -0.019409 0.006376 0.008266 0.005010 0.002472 0.004147
0.435600 -0.019463 0.006396 0.008297 0.005009 0.002473 0.004152
0.438400 -0.019519 0.006416 0.008329 0.005007 0.002473 0.004157
0.441100 -0.019573 0.006435 0.008360 0.005005 0.002474 0.004162
0.443800 -0.019626 0.006454 0.008390 0.005003 0.002474 0.004167
0.446600 -0.019681 0.006474 0.008422 0.005001 0.002474 0.004172
0.449300 -0.019734 0.006493 0.008452 0.004999 0.002475 0.004177
0.452100 -0.019789 0.006512 0.008483 0.004996 0.002475 0.004182
0.454800 -0.019842 0.006531 0.008513 0.004994 0.002476 0.004187
0.457500 -0.019894 0.006550 0.008543 0.004992 0.002476 0.004191
0.460300 -0.019948 0.006569 0.008573 0.004990 0.002476 0.004196
0.463000 -0.020000 0.006587 0.008603 0.004987 0.002477 0.004200
0.465800 -0.020054 0.006606 0.008633 0.004985 0.002477 0.004205
0.468500 -0.020106 0.006625 0.008662 0.004983 0.002478 0.004209
0.471200 -0.020157 0.006643 0.008690 0.004980 0.002478 0.004214
0.474000 -0.020210 0.006662 0.008720 0.004978 0.002478 0.004218
0.476700 -0.020261 0.006680 0.008748 0.004975 0.002479 0.004223
0.479500 -0.020314 0.006699 0.008777 0.004973 0.002479 0.004227
0.482200 -0.020365 0.006717 0.008805 0.004970 0.002480 0.004231
0.484900 -0.020415 0.006734 0.008833 0.004967 0.002480 0.004235
0.487700 -0.020467 0.006753 0.008862 0.004965 0.002480 0.004239
0.490400 -0.020517 0.006771 0.008889 0.004962 0.002481 0.004243
0.493200 -0.020569 0.006789 0.008918 0.004959 0.002481 0.004247
0.495900 -0.020619 0.006807 0.008945 0.004957 0.002482 0.004251
0.498600 -0.020668 0.006824 0.008972 0.004954 0.002482 0.004255
0.501400 -0.020719 0.006842 0.008999 0.004951 0.002482 0.004259
0.504100 -0.020769 0.006860 0.009026 0.004948 0.002483 0.004263
0.506900 -0.020819 0.006878 0.009053 0.004945 0.002483 0.004267
0.509600 -0.020868 0.006895 0.009079 0.004943 0.002484 0.004270
0.512300 -0.020917 0.006912 0.009105 0.004940 0.002484 0.004274
0.517800 -0.021016 0.006947 0.009158 0.004934 0.002485 0.004281
0.520600 -0.021066 0.006965 0.009184 0.004931 0.002486 0.004285
0.523300 -0.021114 0.006982 0.009210 0.004928 0.002486 0.004288
0.526000 -0.021162 0.006998 0.009235 0.004925 0.002487 0.004292
0.528800 -0.021211 0.007016 0.009261 0.004922 0.002487 0.004295
0.531500 -0.021259 0.007033 0.009286 0.004919 0.002488 0.004298
0.534300 -0.021308 0.007050 0.009311 0.004916 0.002488 0.004302
0.537000 -0.021355 0.007067 0.009336 0.004913 0.002489 0.004305
0.539700 -0.021402 0.007083 0.009360 0.004910 0.002489 0.004308
0.542500 -0.021451 0.007100 0.009385 0.004907 0.002490 0.004311
0.545200 -0.021498 0.007117 0.009409 0.004904 0.002490 0.004314
0.547900 -0.021545 0.007133 0.009433 0.004900 0.002491 0.004317
0.550700 -0.021593 0.007150 0.009458 0.004897 0.002491 0.004321
0.553400 -0.021639 0.007167 0.009481 0.004894 0.002492 0.004324
0.556200 -0.021687 0.007183 0.009506 0.004891 0.002492 0.004327
0.558900 -0.021733 0.007200 0.009529 0.004888 0.002493 0.004329
0.561600 -0.021779 0.007216 0.009552 0.004885 0.002493 0.004332
0.564400 -0.021827 0.007232 0.009576 0.004881 0.002494 0.004335
0.567100 -0.021873 0.007248 0.009599 0.004878 0.002495 0.004338
0.569900 -0.021920 0.007265 0.009622 0.004875 0.002495 0.004341
0.572600 -0.021965 0.007281 0.009644 0.004872 0.002496 0.004343
0.575300 -0.022011 0.007297 0.009667 0.004868 0.002497 0.004346
0.578100 -0.022058 0.007313 0.009690 0.004865 0.002497 0.004349
0.580800 -0.022103 0.007329 0.009712 0.004862 0.002498 0.004351
0.583600 -0.022149 0.007345 0.009734 0.004859 0.002499 0.004354
0.586300 -0.022194 0.007361 0.009756 0.004855 0.002499 0.004356
0.589000 -0.022239 0.007377 0.009778 0.004852 0.002500 0.004359
0.591800 -0.022285 0.007393 0.009800 0.004849 0.002501 0.004361
0.594500 -0.022330 0.007408 0.009821 0.004846 0.002501 0.004363
0.597300 -0.022376 0.007424 0.009843 0.004842 0.002502 0.004366
0.600000 -0.022420 0.007440 0.009864 0.004839 0.002503 0.004368
0.602700 -0.022464 0.007455 0.009885 0.004836 0.002504 0.004370
0.605500 -0.022509 0.007471 0.009906 0.004832 0.002504 0.004372
0.608200 -0.022553 0.007487 0.009927 0.004829 0.002505 0.004375
0.611000 -0.022599 0.007502 0.009948 0.004826 0.002506 0.004377
0.613700 -0.022642 0.007518 0.009968 0.004822 0.002507 0.004379
0.616400 -0.022686 0.007533 0.009988 0.004819 0.002507 0.004381
0.619200 -0.022731 0.007548 0.010009 0.004816 0.002508 0.004383
0.621900 -0.022774 0.007564 0.010029 0.004812 0.002509 0.004385
0.624700 -0.022819 0.007579 0.010049 0.004809 0.002510 0.004387
0.627400 -0.022862 0.007594 0.010069 0.004806 0.002511 0.004389
0.630100 -0.022905 0.007609 0.010088 0.004802 0.002512 0.004391
0.632900 -0.022950 0.007625 0.010108 0.004799 0.002513 0.004392
0.635600 -0.022992 0.007639 0.010127 0.004796 0.002513 0.004394
0.638400 -0.023037 0.007655 0.010147 0.004792 0.002514 0.004396
0.641100 -0.023079 0.007670 0.010166 0.004789 0.002515 0.004398
0.643800 -0.023122 0.007684 0.010185 0.004786 0.002516 0.004399
0.646600 -0.023166 0.007700 0.010204 0.004782 0.002517 0.004401
0.649300 -0.023208 0.007714 0.010222 0.004779 0.002518 0.004403
0.652100 -0.023252 0.007730 0.010241 0.004776 0.002519 0.004404
0.654800 -0.023294 0.007744 0.010260 0.004772 0.002520 0.004406
0.657500 -0.023336 0.007759 0.010278 0.004769 0.002521 0.004407
0.660300 -0.023379 0.007774 0.010296 0.004766 0.002522 0.004409
0.663000 -0.023421 0.007788 0.010314 0.004762 0.002523 0.004410
0.665800 -0.023464 0.007803 0.010333 0.004759 0.002524 0.004412
0.668500 -0.023506 0.007818 0.010350 0.004756 0.002525 0.004413
0.671200 -0.023547 0.007832 0.010367 0.004752 0.002526 0.004414
0.674000 -0.023590 0.007847 0.010385 0.004749 0.002527 0.004416
0.676700 -0.023631 0.007861 0.010403 0.004746 0.002528 0.004417
0.679500 -0.023674 0.007876 0.010420 0.004743 0.002530 0.004418
0.682200 -0.023715 0.007890 0.010437 0.004739 0.002531 0.004420
0.684900 -0.023756 0.007904 0.010454 0.004736 0.002532 0.004421
0.687700 -0.023799 0.007919 0.010471 0.004733 0.002533 0.004422
0.690400 -0.023839 0.007933 0.010488 0.004730 0.002534 0.004423
0.693200 -0.023882 0.007948 0.010505 0.004726 0.002535 0.004424
0.695900 -0.023922 0.007962 0.010521 0.004723 0.002536 0.004425
0.698600 -0.023963 0.007976 0.010537 0.004720 0.002538 0.004426
0.701400 -0.024005 0.007990 0.010554 0.004717 0.002539 0.004427
0.704100 -0.024045 0.008004 0.010570 0.004713 0.002540 0.004428
0.706900 -0.024087 0.008019 0.010586 0.004710 0.002541 0.004429
0.709600 -0.024127 0.008032 0.010602 0.004707 0.002542 0.004430
0.712300 -0.024167 0.008046 0.010618 0.004704 0.002544 0.004431
0.715100 -0.024209 0.008061 0.010634 0.004701 0.002545 0.004432
0.717800 -0.024249 0.008074 0.010649 0.004697 0.002546 0.004433
0.720600 -0.024290 0.008089 0.010665 0.004694 0.002547 0.004433
0.723300 -0.024330 0.008102 0.010680 0.004691 0.002549 0.004434
0.726000 -0.024370 0.008116 0.010695 0.004688 0.002550 0.004435
0.728800 -0.024411 0.008130 0.010711 0.004685 0.002551 0.004436
0.731500 -0.024451 0.008144 0.010725 0.004682 0.002553 0.004436
0.734300 -0.024492 0.008158 0.010741 0.004678 0.002554 0.004437
0.737000 -0.024531 0.008172 0.010755 0.004675 0.002555 0.004437
0.739700 -0.024570 0.008185 0.010770 0.004672 0.002557 0.004438
0.742500 -0.024611 0.008199 0.010784 0.004669 0.002558 0.004439
0.745200 -0.024650 0.008213 0.010799 0.004666 0.002560 0.004439
0.747900 -0.024689 0.008226 0.010813 0.004663 0.002561 0.004440
0.750700 -0.024730 0.008240 0.010827 0.004660 0.002562 0.004440
0.753400 -0.024769 0.008253 0.010841 0.004657 0.002564 0.004441
0.756200 -0.024809 0.008267 0.010856 0.004654 0.002565 0.004441
0.758900 -0.024848 0.008280 0.010869 0.004651 0.002567 0.004441
0.761600 -0.024887 0.008294 0.010883 0.004648 0.002568 0.004442
0.764400 -0.024927 0.008307 0.010897 0.004645 0.002570 0.004442
0.767100 -0.024965 0.008321 0.010910 0.004642 0.002571 0.004442
0.769900 -0.025005 0.008334 0.010924 0.004639 0.002573 0.004443
0.772600 -0.025044 0.008348 0.010937 0.004636 0.002574 0.004443
0.775300 -0.025082 0.008361 0.010950 0.004633 0.002576 0.004443
0.778100 -0.025122 0.008374 0.010964 0.004630 0.002577 0.004443
0.780800 -0.025160 0.008387 0.010976 0.004627 0.002579 0.004444
0.783600 -0.025200 0.008401 0.010990 0.004624 0.002580 0.004444
0.786300 -0.025238 0.008414 0.011002 0.004621 0.002582 0.004444
0.789000 -0.025276 0.008427 0.011015 0.004619 0.002583 0.004444
0.791800 -0.025315 0.008440 0.011028 0.004616 0.002585 0.004444
0.794500 -0.025353 0.008453 0.011040 0.004613 0.002587 0.004444
0.797300 -0.025392 0.008467 0.011053 0.004610 0.002588 0.004444
0.800000 -0.025430 0.008480 0.011065 0.004607 0.002590 0.004444
0.802700 -0.025468 0.008493 0.011077 0.004604 0.002592 0.004444
0.805500 -0.025507 0.008506 0.011089 0.004602 0.002593 0.004444
0.808200 -0.025544 0.008519 0.011101 0.004599 0.002595 0.004444
0.811000 -0.025583 0.008532 0.011113 0.004596 0.002597 0.004444
0.813700 -0.025621 0.008545 0.011125 0.004593 0.002598 0.004444
0.816400 -0.025658 0.008558 0.011136 0.004591 0.002600 0.004444
0.819200 -0.025697 0.008571 0.011148 0.004588 0.002602 0.004444
0.821900 -0.025734 0.008584 0.011160 0.004585 0.002603 0.004444
0.824700 -0.025772 0.008597 0.011171 0.004582 0.002605 0.004444
0.827400 -0.025809 0.008609 0.011183 0.004580 0.002607 0.004443
0.830100 -0.025846 0.008622 0.011194 0.004577 0.002609 0.004443
0.832900 -0.025885 0.008635 0.011205 0.004575 0.002610 0.004443
0.835600 -0.025922 0.008648 0.011216 0.004572 0.002612 0.004443
0.838400 -0.025960 0.008661 0.011227 0.004569 0.002614 0.004443
0.841100 -0.025997 0.008673 0.011238 0.004567 0.002616 0.004442
0.843800 -0.026033 0.008686 0.011249 0.004564 0.002617 0.004442
0.846600 -0.026071 0.008699 0.011260 0.004562 0.002619 0.004442
0.849300 -0.026108 0.008711 0.011270 0.004559 0.002621 0.004441
0.852100 -0.026146 0.008724 0.011281 0.004556 0.002623 0.004441
