# time (yr) north(m) east(m) up(m) northsigma(m) eastsigma(m) upsigma(m)
0.000000 0.000000 0.000000 0.000000 0.001873 0.001514 0.002314
0.002700 -0.000136 0.000043 -0.000007 0.001878 0.001515 0.002314
0.005500 -0.000271 0.000086 -0.000015 0.001892 0.001519 0.002315
0.008200 -0.000396 0.000127 -0.000022 0.001913 0.001526 0.002316
0.011000 -0.000522 0.000169 -0.000029 0.001941 0.001535 0.002318
0.013700 -0.000640 0.000210 -0.000036 0.001972 0.001545 0.002320
0.016400 -0.000755 0.000250 -0.000043 0.002008 0.001558 0.002322
0.019200 -0.000872 0.000291 -0.000051 0.002048 0.001572 0.002325
0.021900 -0.000982 0.000330 -0.000057 0.002090 0.001588 0.002328
0.024700 -0.001093 0.000370 -0.000064 0.002134 0.001605 0.002331
0.027400 -0.001199 0.000409 -0.000071 0.002179 0.001623 0.002335
0.030100 -0.001302 0.000447 -0.000077 0.002225 0.001642 0.002339
0.032900 -0.001407 0.000486 -0.000083 0.002272 0.001662 0.002343
0.035600 -0.001506 0.000524 -0.000089 0.002319 0.001683 0.002347
0.038400 -0.001608 0.000563 -0.000095 0.002366 0.001706 0.002352
0.041100 -0.001704 0.000600 -0.000100 0.002412 0.001728 0.002357
0.043800 -0.001798 0.000637 -0.000105 0.002458 0.001751 0.002362
0.046600 -0.001895 0.000675 -0.000110 0.002504 0.001775 0.002367
0.049300 -0.001986 0.000711 -0.000114 0.002548 0.001799 0.002373
0.052100 -0.002080 0.000749 -0.000118 0.002593 0.001824 0.002379
0.054800 -0.002168 0.000785 -0.000122 0.002635 0.001849 0.002385
0.057500 -0.002256 0.000820 -0.000125 0.002676 0.001874 0.002391
0.060300 -0.002345 0.000857 -0.000128 0.002717 0.001900 0.002397
0.063000 -0.002430 0.000892 -0.000131 0.002756 0.001925 0.002403
0.065800 -0.002517 0.000928 -0.000133 0.002795 0.001952 0.002410
0.068500 -0.002600 0.000963 -0.000135 0.002832 0.001977 0.002417
0.071200 -0.002681 0.000997 -0.000137 0.002867 0.002003 0.002423
0.074000 -0.002765 0.001033 -0.000138 0.002903 0.002030 0.002431
0.076700 -0.002845 0.001066 -0.000139 0.002936 0.002055 0.002438
0.079500 -0.002926 0.001101 -0.000139 0.002968 0.002082 0.002445
0.082200 -0.003004 0.001135 -0.000139 0.002999 0.002107 0.002452
0.084900 -0.003081 0.001168 -0.000139 0.003028 0.002133 0.002459
0.087700 -0.003159 0.001202 -0.000138 0.003058 0.002159 0.002467
0.090400 -0.003234 0.001234 -0.000137 0.003085 0.002185 0.002474
0.093200 -0.003311 0.001268 -0.000135 0.003112 0.002211 0.002482
0.095900 -0.003385 0.001300 -0.000133 0.003137 0.002236 0.002489
0.098600 -0.003458 0.001332 -0.000131 0.003161 0.002260 0.002496
0.101400 -0.003533 0.001365 -0.000128 0.003184 0.002286 0.002504
0.104100 -0.003604 0.001396 -0.000125 0.003206 0.002310 0.002512
0.106900 -0.003677 0.001428 -0.000121 0.003228 0.002335 0.002520
0.109600 -0.003747 0.001459 -0.000117 0.003248 0.002359 0.002527
0.112300 -0.003817 0.001489 -0.000113 0.003267 0.002383 0.002535
0.115100 -0.003888 0.001521 -0.000108 0.003285 0.002407 0.002543
0.117800 -0.003956 0.001551 -0.000103 0.003303 0.002430 0.002550
0.120600 -0.004026 0.001582 -0.000097 0.003320 0.002454 0.002558
0.123300 -0.004094 0.001612 -0.000091 0.003335 0.002477 0.002566
0.126000 -0.004160 0.001641 -0.000085 0.003350 0.002499 0.002573
0.128800 -0.004229 0.001671 -0.000078 0.003364 0.002522 0.002581
0.131500 -0.004295 0.001700 -0.000070 0.003378 0.002544 0.002588
0.134300 -0.004362 0.001730 -0.000063 0.003391 0.002566 0.002596
0.137000 -0.004427 0.001758 -0.000055 0.003402 0.002587 0.002603
0.139700 -0.004491 0.001786 -0.000046 0.003414 0.002608 0.002611
0.142500 -0.004557 0.001815 -0.000037 0.003424 0.002629 0.002618
0.145200 -0.004621 0.001843 -0.000028 0.003434 0.002649 0.002626
0.147900 -0.004684 0.001870 -0.000019 0.003444 0.002669 0.002633
0.150700 -0.004749 0.001899 -0.000009 0.003453 0.002690 0.002640
0.153400 -0.004811 0.001926 0.000002 0.003461 0.002709 0.002647
0.156200 -0.004876 0.001954 0.000013 0.003469 0.002729 0.002655
0.158900 -0.004938 0.001980 0.000024 0.003476 0.002748 0.002662
0.161600 -0.004999 0.002007 0.000035 0.003483 0.002766 0.002669
0.164400 -0.005062 0.002034 0.000047 0.003489 0.002785 0.002676
0.167100 -0.005123 0.002060 0.000059 0.003495 0.002803 0.002682
0.169900 -0.005186 0.002086 0.000072 0.003500 0.002821 0.002689
0.172600 -0.005246 0.002112 0.000085 0.003505 0.002838 0.002696
0.175300 -0.005306 0.002137 0.000098 0.003510 0.002855 0.002702
0.178100 -0.005368 0.002164 0.000112 0.003514 0.002872 0.002709
0.180800 -0.005427 0.002189 0.000126 0.003518 0.002889 0.002715
0.183600 -0.005489 0.002214 0.000141 0.003521 0.002905 0.002722
0.186300 -0.005548 0.002239 0.000156 0.003524 0.002921 0.002728
0.189000 -0.005606 0.002263 0.000170 0.003527 0.002936 0.002734
0.191800 -0.005667 0.002288 0.000186 0.003530 0.002952 0.002740
0.194500 -0.005725 0.002313 0.000202 0.003532 0.002967 0.002746
0.197300 -0.005786 0.002337 0.000219 0.003534 0.002982 0.002752
0.200000 -0.005844 0.002361 0.000235 0.003536 0.002996 0.002758
0.202700 -0.005902 0.002385 0.000251 0.003537 0.003011 0.002764
0.205500 -0.005961 0.002409 0.000269 0.003538 0.003025 0.002769
0.208200 -0.006019 0.002432 0.000286 0.003539 0.003038 0.002775
0.211000 -0.006078 0.002456 0.000305 0.003540 0.003052 0.002780
0.213700 -0.006135 0.002479 0.000323 0.003541 0.003065 0.002786
0.216400 -0.006192 0.002502 0.000341 0.003541 0.003078 0.002791
0.219200 -0.006251 0.002525 0.000360 0.003541 0.003090 0.002796
0.221900 -0.006308 0.002547 0.000379 0.003541 0.003102 0.002801
0.224700 -0.006367 0.002571 0.000399 0.003541 0.003115 0.002806
0.227400 -0.006423 0.002593 0.000418 0.003541 0.003126 0.002811
0.230100 -0.006479 0.002615 0.000438 0.003540 0.003138 0.002815
0.232900 -0.006538 0.002637 0.000459 0.003540 0.003149 0.002820
0.235600 -0.006594 0.002659 0.000479 0.003539 0.003160 0.002824
0.238400 -0.006652 0.002682 0.000501 0.003538 0.003171 0.002829
0.241100 -0.006708 0.002703 0.000522 0.003537 0.003182 0.002833
0.243800 -0.006763 0.002724 0.000543 0.003536 0.003192 0.002837
0.246600 -0.006821 0.002746 0.000565 0.003535 0.003202 0.002841
0.249300 -0.006877 0.002767 0.000587 0.003534 0.003212 0.002845
0.252100 -0.006934 0.002789 0.000610 0.003533 0.003222 0.002849
0.254800 -0.006990 0.002810 0.000632 0.003531 0.003231 0.002853
0.257500 -0.007045 0.002831 0.000655 0.003530 0.003240 0.002856
0.260300 -0.007102 0.002852 0.000678 0.003528 0.003249 0.002860
0.263000 -0.007157 0.002873 0.000701 0.003527 0.003258 0.002863
0.265800 -0.007215 0.002894 0.000726 0.003525 0.003266 0.002867
0.268500 -0.007270 0.002914 0.000749 0.003523 0.003275 0.002870
0.271200 -0.007325 0.002934 0.000773 0.003522 0.003283 0.002873
0.274000 -0.007382 0.002955 0.000798 0.003520 0.003291 0.002876
0.276700 -0.007436 0.002975 0.000822 0.003518 0.003298 0.002879
0.279500 -0.007493 0.002996 0.000848 0.003516 0.003306 0.002882
0.282200 -0.007548 0.003016 0.000873 0.003514 0.003313 0.002884
0.284900 -0.007603 0.003036 0.000898 0.003512 0.003320 0.002887
0.287700 -0.007659 0.003056 0.000924 0.003510 0.003327 0.002890
0.290400 -0.007714 0.003075 0.000950 0.003508 0.003334 0.002892
0.293200 -0.007770 0.003096 0.000976 0.003506 0.003340 0.002894
0.295900 -0.007825 0.003115 0.001002 0.003504 0.003347 0.002896
0.298600 -0.007879 0.003134 0.001028 0.003502 0.003353 0.002899
0.301400 -0.007936 0.003154 0.001056 0.003500 0.003359 0.002901
0.304100 -0.007990 0.003174 0.001082 0.003498 0.003365 0.002902
0.306900 -0.008046 0.003193 0.001110 0.003496 0.003370 0.002904
0.309600 -0.008101 0.003212 0.001137 0.003494 0.003376 0.002906
0.312300 -0.008155 0.003231 0.001165 0.003492 0.003381 0.002908
0.315100 -0.008211 0.003251 0.001193 0.003490 0.003386 0.002909
0.317800 -0.008265 0.003270 0.001221 0.003488 0.003391 0.002911
0.320600 -0.008321 0.003289 0.001250 0.003486 0.003396 0.002912
0.323300 -0.008376 0.003308 0.001278 0.003484 0.003401 0.002913
0.326000 -0.008430 0.003327 0.001306 0.003482 0.003405 0.002915
0.328800 -0.008486 0.003346 0.001335 0.003480 0.003410 0.002916
0.331500 -0.008540 0.003365 0.001364 0.003478 0.003414 0.002917
0.334300 -0.008596 0.003384 0.001394 0.003476 0.003418 0.002918
0.337000 -0.008650 0.003402 0.001423 0.003474 0.003422 0.002919
0.339700 -0.008704 0.003421 0.001452 0.003472 0.003426 0.002919
0.342500 -0.008760 0.003440 0.001482 0.003470 0.003430 0.002920
0.345200 -0.008813 0.003458 0.001511 0.003468 0.003433 0.002921
0.347900 -0.008867 0.003476 0.001541 0.003466 0.003437 0.002921
0.350700 -0.008923 0.003495 0.001572 0.003465 0.003440 0.002922
0.353400 -0.008977 0.003513 0.001602 0.003463 0.003443 0.002922
0.356200 -0.009033 0.003532 0.001633 0.003461 0.003446 0.002922
0.358900 -0.009087 0.003550 0.001663 0.003459 0.003449 0.002923
0.361600 -0.009140 0.003569 0.001694 0.003457 0.003452 0.002923
0.364400 -0.009196 0.003587 0.001725 0.003456 0.003454 0.002923
0.367100 -0.009250 0.003605 0.001756 0.003454 0.003457 0.002923
0.369900 -0.009306 0.003624 0.001788 0.003452 0.003459 0.002923
0.372600 -0.009359 0.003642 0.001819 0.003451 0.003462 0.002923
0.375300 -0.009413 0.003660 0.001850 0.003449 0.003464 0.002922
0.378100 -0.009469 0.003679 0.001882 0.003447 0.003466 0.002922
0.380800 -0.009522 0.003696 0.001914 0.003446 0.003468 0.002922
0.383600 -0.009578 0.003715 0.001947 0.003444 0.003470 0.002921
0.386300 -0.009631 0.003733 0.001978 0.003443 0.003472 0.002921
0.389000 -0.009685 0.003751 0.002010 0.003441 0.003473 0.002920
0.391800 -0.009740 0.003769 0.002043 0.003440 0.003475 0.002920
0.394500 -0.009794 0.003787 0.002075 0.003438 0.003476 0.002919
0.397300 -0.009850 0.003805 0.002108 0.003437 0.003478 0.002918
0.400000 -0.009903 0.003823 0.002141 0.003436 0.003479 0.002918
0.402700 -0.009957 0.003841 0.002173 0.003434 0.003480 0.002917
0.405500 -0.010012 0.003859 0.002207 0.003433 0.003481 0.002916
0.408200 -0.010065 0.003877 0.002239 0.003432 0.003482 0.002915
0.411000 -0.010121 0.003896 0.002273 0.003431 0.003483 0.002914
0.413700 -0.010174 0.003913 0.002306 0.003429 0.003484 0.002913
0.416400 -0.010228 0.003931 0.002339 0.003428 0.003485 0.002912
0.419200 -0.010283 0.003949 0.002373 0.003427 0.003486 0.002910
0.421900 -0.010336 0.003967 0.002406 0.003426 0.003486 0.002909
0.424700 -0.010392 0.003985 0.002440 0.003425 0.003487 0.002908
0.427400 -0.010445 0.004003 0.002474 0.003424 0.003487 0.002907
0.430100 -0.010498 0.004021 0.002507 0.003423 0.003487 0.002905
0.432900 -0.010554 0.004039 0.002542 0.003422 0.003488 0.002904
0.435600 -0.010607 0.004057 0.002575 0.003421 0.003488 0.002902
0.438400 -0.010662 0.004075 0.002610 0.003420 0.003488 0.002901
0.441100 -0.010715 0.004093 0.002644 0.003419 0.003488 0.002899
0.443800 -0.010769 0.004111 0.002678 0.003418 0.003488 0.002898
0.446600 -0.010824 0.004129 0.002713 0.003417 0.003488 0.002896
0.449300 -0.010877 0.004147 0.002747 0.003417 0.003488 0.002894
0.452100 -0.010932 0.004165 0.002782 0.003416 0.003488 0.002892
0.454800 -0.010985 0.004183 0.002816 0.003415 0.003488 0.002891
0.457500 -0.011038 0.004201 0.002850 0.003414 0.003487 0.002889
0.460300 -0.011093 0.004219 0.002886 0.003414 0.003487 0.002887
0.463000 -0.011146 0.004237 0.002920 0.003413 0.003487 0.002885
0.465800 -0.011201 0.004255 0.002956 0.003413 0.003486 0.002883
0.468500 -0.011254 0.004273 0.002990 0.003412 0.003485 0.002881
0.471200 -0.011307 0.004291 0.003025 0.003411 0.003485 0.002879
0.474000 -0.011362 0.004309 0.003060 0.003411 0.003484 0.002877
0.476700 -0.011415 0.004327 0.003095 0.003410 0.003484 0.002875
0.479500 -0.011470 0.004345 0.003131 0.003410 0.003483 0.002873
0.482200 -0.011523 0.004363 0.003166 0.003410 0.003482 0.002871
0.484900 -0.011576 0.004381 0.003200 0.003409 0.003481 0.002869
0.487700 -0.011631 0.004400 0.003236 0.003409 0.003480 0.002866
0.490400 -0.011684 0.004417 0.003271 0.003409 0.003479 0.002864
0.493200 -0.011738 0.004436 0.003307 0.003408 0.003478 0.002862
0.495900 -0.011791 0.004454 0.003342 0.003408 0.003477 0.002859
0.498600 -0.011844 0.004472 0.003377 0.003408 0.003476 0.002857
0.501400 -0.011899 0.004490 0.003414 0.003408 0.003475 0.002855
0.504100 -0.011951 0.004508 0.003449 0.003407 0.003474 0.002852
0.506900 -0.012006 0.004527 0.003485 0.003407 0.003473 0.002850
0.509600 -0.012059 0.004545 0.003520 0.003407 0.003471 0.002848
0.512300 -0.012111 0.004563 0.003555 0.003407 0.003470 0.002845
0.517800 -0.012218 0.004600 0.003627 0.003407 0.003467 0.002840
0.520600 -0.012273 0.004618 0.003664 0.003407 0.003466 0.002838
0.523300 -0.012325 0.004637 0.003699 0.003407 0.003465 0.002835
0.526000 -0.012378 0.004655 0.003734 0.003407 0.003463 0.002833
0.528800 -0.012432 0.004673 0.003771 0.003407 0.003462 0.002830
0.531500 -0.012485 0.004692 0.003806 0.003407 0.003460 0.002828
0.534300 -0.012539 0.004710 0.003843 0.003408 0.003459 0.002825
0.537000 -0.012591 0.004729 0.003879 0.003408 0.003457 0.002822
0.539700 -0.012644 0.004747 0.003914 0.003408 0.003455 0.002820
0.542500 -0.012698 0.004766 0.003951 0.003408 0.003454 0.002817
0.545200 -0.012750 0.004784 0.003986 0.003408 0.003452 0.002814
0.547900 -0.012802 0.004802 0.004022 0.003409 0.003451 0.002812
0.550700 -0.012856 0.004821 0.004058 0.003409 0.003449 0.002809
0.553400 -0.012909 0.004840 0.004094 0.003410 0.003447 0.002806
0.556200 -0.012963 0.004859 0.004131 0.003410 0.003445 0.002804
0.558900 -0.013015 0.004877 0.004166 0.003410 0.003444 0.002801
0.561600 -0.013067 0.004895 0.004202 0.003411 0.003442 0.002798
0.564400 -0.013121 0.004915 0.004239 0.003411 0.003440 0.002796
0.567100 -0.013173 0.004933 0.004274 0.003412 0.003438 0.002793
0.569900 -0.013226 0.004952 0.004311 0.003412 0.003436 0.002790
0.572600 -0.013278 0.004971 0.004347 0.003413 0.003434 0.002787
0.575300 -0.013330 0.004989 0.004382 0.003414 0.003433 0.002785
0.578100 -0.013384 0.005008 0.004419 0.003414 0.003431 0.002782
0.580800 -0.013436 0.005027 0.004455 0.003415 0.003429 0.002779
0.583600 -0.013489 0.005046 0.004491 0.003416 0.003427 0.002776
0.586300 -0.013541 0.005065 0.004527 0.003416 0.003425 0.002773
0.589000 -0.013593 0.005084 0.004563 0.003417 0.003423 0.002771
0.591800 -0.013646 0.005103 0.004599 0.003418 0.003421 0.002768
0.594500 -0.013698 0.005122 0.004635 0.003419 0.003419 0.002765
0.597300 -0.013751 0.005141 0.004672 0.003420 0.003417 0.002762
0.600000 -0.013803 0.005160 0.004707 0.003420 0.003415 0.002760
0.602700 -0.013854 0.005179 0.004743 0.003421 0.003413 0.002757
0.605500 -0.013907 0.005198 0.004780 0.003422 0.003411 0.002754
0.608200 -0.013959 0.005217 0.004815 0.003423 0.003409 0.002751
0.611000 -0.014012 0.005237 0.004852 0.003424 0.003407 0.002748
0.613700 -0.014063 0.005256 0.004887 0.003425 0.003405 0.002746
0.616400 -0.014115 0.005275 0.004923 0.003426 0.003403 0.002743
0.619200 -0.014168 0.005294 0.004959 0.003427 0.003401 0.002740
0.621900 -0.014219 0.005313 0.004995 0.003429 0.003399 0.002737
0.624700 -0.014272 0.005333 0.005032 0.003430 0.003397 0.002734
0.627400 -0.014323 0.005352 0.005067 0.003431 0.003395 0.002732
0.630100 -0.014374 0.005371 0.005102 0.003432 0.003393 0.002729
0.632900 -0.014427 0.005391 0.005139 0.003433 0.003390 0.002726
0.643800 -0.014632 0.005468 0.005281 0.003439 0.003382 0.002715
0.646600 -0.014684 0.005488 0.005318 0.003440 0.003380 0.002712
0.649300 -0.014735 0.005508 0.005353 0.003441 0.003378 0.002709
0.652100 -0.014788 0.005528 0.005389 0.003443 0.003376 0.002707
0.654800 -0.014838 0.005547 0.005425 0.003444 0.003374 0.002704
0.657500 -0.014889 0.005566 0.005460 0.003446 0.003372 0.002701
0.665800 -0.015044 0.005626 0.005567 0.003450 0.003366 0.002693
0.668500 -0.015094 0.005646 0.005602 0.003452 0.003364 0.002690
0.671200 -0.015144 0.005665 0.005637 0.003454 0.003362 0.002688
0.674000 -0.015196 0.005685 0.005673 0.003455 0.003360 0.002685
0.679500 -0.015298 0.005725 0.005744 0.003459 0.003356 0.002680
0.682200 -0.015349 0.005745 0.005779 0.003461 0.003354 0.002677
0.684900 -0.015399 0.005764 0.005814 0.003462 0.003352 0.002674
0.687700 -0.015450 0.005785 0.005850 0.003464 0.003350 0.002672
0.690400 -0.015500 0.005805 0.005885 0.003466 0.003348 0.002669
0.693200 -0.015552 0.005825 0.005920 0.003468 0.003346 0.002666
0.695900 -0.015602 0.005845 0.005955 0.003470 0.003344 0.002664
0.698600 -0.015651 0.005865 0.005990 0.003472 0.003342 0.002661
0.701400 -0.015703 0.005885 0.006025 0.003474 0.003340 0.002659
0.704100 -0.015753 0.005905 0.006060 0.003476 0.003338 0.002656
0.706900 -0.015804 0.005925 0.006096 0.003478 0.003336 0.002654
0.709600 -0.015853 0.005945 0.006130 0.003480 0.003334 0.002651
0.712300 -0.015903 0.005965 0.006164 0.003482 0.003333 0.002649
0.715100 -0.015954 0.005986 0.006200 0.003484 0.003331 0.002646
0.717800 -0.016003 0.006006 0.006234 0.003486 0.003329 0.002644
0.720600 -0.016055 0.006027 0.006270 0.003489 0.003327 0.002641
0.723300 -0.016104 0.006047 0.006304 0.003491 0.003325 0.002639
0.726000 -0.016153 0.006067 0.006338 0.003493 0.003324 0.002636
0.728800 -0.016204 0.006087 0.006373 0.003495 0.003322 0.002634
0.731500 -0.016253 0.006107 0.006407 0.003498 0.003320 0.002631
0.734300 -0.016304 0.006128 0.006442 0.003500 0.003318 0.002629
0.737000 -0.016353 0.006148 0.006476 0.003502 0.003317 0.002627
0.739700 -0.016402 0.006169 0.006510 0.003505 0.003315 0.002624
0.742500 -0.016452 0.006190 0.006545 0.003507 0.003313 0.002622
0.745200 -0.016501 0.006210 0.006579 0.003510 0.003312 0.002620
0.747900 -0.016550 0.006230 0.006613 0.003512 0.003310 0.002617
0.750700 -0.016600 0.006251 0.006648 0.003515 0.003308 0.002615
0.753400 -0.016649 0.006271 0.006681 0.003517 0.003307 0.002613
0.756200 -0.016699 0.006292 0.006716 0.003520 0.003305 0.002610
0.758900 -0.016747 0.006313 0.006749 0.003522 0.003304 0.002608
0.761600 -0.016796 0.006333 0.006783 0.003525 0.003302 0.002606
0.764400 -0.016846 0.006354 0.006818 0.003528 0.003301 0.002604
0.767100 -0.016894 0.006374 0.006851 0.003530 0.003299 0.002602
0.769900 -0.016944 0.006396 0.006885 0.003533 0.003298 0.002599
0.772600 -0.016992 0.006416 0.006919 0.003536 0.003296 0.002597
0.775300 -0.017040 0.006436 0.006952 0.003539 0.003295 0.002595
0.778100 -0.017090 0.006458 0.006986 0.003541 0.003293 0.002593
0.780800 -0.017138 0.006478 0.007019 0.003544 0.003292 0.002591
0.783600 -0.017188 0.006499 0.007053 0.003547 0.003291 0.002589
0.786300 -0.017236 0.006520 0.007086 0.003550 0.003289 0.002587
0.789000 -0.017283 0.006541 0.007119 0.003553 0.003288 0.002585
0.791800 -0.017333 0.006562 0.007153 0.003556 0.003287 0.002583
0.794500 -0.017380 0.006583 0.007186 0.003559 0.003286 0.002581
0.797300 -0.017430 0.006604 0.007220 0.003562 0.003284 0.002579
0.800000 -0.017477 0.006625 0.007252 0.003565 0.003283 0.002577
0.802700 -0.017525 0.006645 0.007285 0.003568 0.003282 0.002575
0.805500 -0.017574 0.006667 0.007319 0.003571 0.003281 0.002573
0.808200 -0.017621 0.006687 0.007351 0.003574 0.003280 0.002571
0.811000 -0.017670 0.006709 0.007385 0.003577 0.003279 0.002569
0.813700 -0.017717 0.006730 0.007417 0.003580 0.003278 0.002567
0.816400 -0.017764 0.006750 0.007449 0.003584 0.003277 0.002565
0.819200 -0.017813 0.006772 0.007483 0.003587 0.003276 0.002563
0.821900 -0.017860 0.006793 0.007515 0.003590 0.003275 0.002561
0.824700 -0.017909 0.006814 0.007548 0.003593 0.003274 0.002560
0.827400 -0.017956 0.006835 0.007580 0.003597 0.003273 0.002558
0.830100 -0.018002 0.006856 0.007612 0.003600 0.003272 0.002556
0.832900 -0.018051 0.006878 0.007645 0.003603 0.003271 0.002554
0.835600 -0.018098 0.006899 0.007677 0.003607 0.003270 0.002553
0.838400 -0.018146 0.006920 0.007710 0.003610 0.003270 0.002551
0.841100 -0.018192 0.006941 0.007741 0.003614 0.003269 0.002549
0.843800 -0.018239 0.006962 0.007773 0.003617 0.003268 0.002548
0.846600 -0.018287 0.006984 0.007806 0.003621 0.003268 0.002546
0.849300 -0.018333 0.007005 0.007837 0.003624 0.003267 0.002544
0.852100 -0.018381 0.007027 0.007870 0.003628 0.003266 0.002543
0.854800 -0.018427 0.007048 0.007901 0.003631 0.003266 0.002541
0.857500 -0.018474 0.007069 0.007932 0.003635 0.003265 0.002540
0.860300 -0.018521 0.007090 0.007965 0.003638 0.003265 0.002538
0.863000 -0.018567 0.007112 0.007996 0.003642 0.003264 0.002536
0.865800 -0.018615 0.007133 0.008028 0.003646 0.003264 0.002535
