# time (yr) north(m) east(m) up(m) northsigma(m) eastsigma(m) upsigma(m)
0.000000 0.000000 0.000000 0.000000 0.002884 0.001367 0.001150
0.002700 -0.000330 0.000035 0.000014 0.002900 0.001370 0.001150
0.005500 -0.000662 0.000071 0.000029 0.002938 0.001378 0.001151
0.008200 -0.000971 0.000106 0.000043 0.002986 0.001389 0.001152
0.011000 -0.001282 0.000143 0.000058 0.003042 0.001404 0.001153
0.013700 -0.001571 0.000177 0.000072 0.003099 0.001421 0.001155
0.016400 -0.001850 0.000211 0.000086 0.003156 0.001439 0.001156
0.019200 -0.002129 0.000247 0.000101 0.003215 0.001458 0.001159
0.021900 -0.002388 0.000281 0.000115 0.003271 0.001478 0.001162
0.024700 -0.002646 0.000315 0.000130 0.003327 0.001497 0.001165
0.027400 -0.002887 0.000348 0.000144 0.003379 0.001516 0.001168
0.030100 -0.003119 0.000381 0.000159 0.003429 0.001534 0.001172
0.032900 -0.003350 0.000415 0.000173 0.003479 0.001553 0.001176
0.035600 -0.003565 0.000447 0.000188 0.003525 0.001569 0.001180
0.038400 -0.003780 0.000480 0.000202 0.003571 0.001586 0.001185
0.041100 -0.003980 0.000511 0.000217 0.003614 0.001601 0.001190
0.043800 -0.004172 0.000542 0.000231 0.003655 0.001615 0.001196
0.046600 -0.004365 0.000574 0.000246 0.003695 0.001629 0.001201
0.049300 -0.004545 0.000605 0.000260 0.003732 0.001642 0.001207
0.052100 -0.004725 0.000636 0.000275 0.003769 0.001654 0.001214
0.054800 -0.004892 0.000666 0.000289 0.003804 0.001666 0.001220
0.057500 -0.005054 0.000696 0.000303 0.003836 0.001676 0.001227
0.060300 -0.005216 0.000726 0.000318 0.003869 0.001687 0.001235
0.063000 -0.005368 0.000755 0.000333 0.003899 0.001696 0.001242
0.065800 -0.005520 0.000785 0.000347 0.003930 0.001705 0.001250
0.068500 -0.005662 0.000813 0.000362 0.003958 0.001714 0.001258
0.071200 -0.005800 0.000842 0.000376 0.003984 0.001722 0.001266
0.074000 -0.005939 0.000871 0.000391 0.004011 0.001730 0.001275
0.076700 -0.006069 0.000899 0.000405 0.004036 0.001737 0.001284
0.079500 -0.006199 0.000927 0.000419 0.004061 0.001744 0.001293
0.082200 -0.006321 0.000954 0.000434 0.004084 0.001751 0.001302
0.084900 -0.006440 0.000981 0.000448 0.004107 0.001758 0.001311
0.087700 -0.006560 0.001009 0.000462 0.004129 0.001764 0.001321
0.090400 -0.006673 0.001036 0.000476 0.004150 0.001770 0.001331
0.093200 -0.006787 0.001063 0.000491 0.004171 0.001777 0.001341
0.095900 -0.006893 0.001089 0.000505 0.004191 0.001783 0.001351
0.098600 -0.006997 0.001115 0.000519 0.004210 0.001788 0.001362
0.101400 -0.007103 0.001142 0.000534 0.004229 0.001794 0.001373
0.104100 -0.007202 0.001167 0.000548 0.004247 0.001800 0.001383
0.106900 -0.007302 0.001193 0.000562 0.004265 0.001806 0.001394
0.109600 -0.007396 0.001218 0.000576 0.004282 0.001811 0.001405
0.112300 -0.007488 0.001243 0.000590 0.004299 0.001817 0.001416
0.115100 -0.007582 0.001269 0.000604 0.004315 0.001823 0.001428
0.117800 -0.007670 0.001293 0.000618 0.004331 0.001828 0.001439
0.120600 -0.007760 0.001319 0.000632 0.004347 0.001834 0.001451
0.123300 -0.007844 0.001343 0.000646 0.004362 0.001839 0.001463
0.126000 -0.007927 0.001367 0.000660 0.004377 0.001845 0.001475
0.128800 -0.008011 0.001391 0.000674 0.004392 0.001851 0.001487
0.131500 -0.008090 0.001415 0.000688 0.004407 0.001856 0.001499
0.134300 -0.008171 0.001439 0.000702 0.004421 0.001862 0.001511
0.137000 -0.008248 0.001462 0.000715 0.004435 0.001868 0.001523
0.139700 -0.008323 0.001485 0.000729 0.004448 0.001874 0.001536
0.142500 -0.008399 0.001509 0.000743 0.004462 0.001880 0.001548
0.145200 -0.008472 0.001531 0.000756 0.004476 0.001886 0.001561
0.147900 -0.008543 0.001554 0.000770 0.004489 0.001892 0.001573
0.150700 -0.008616 0.001577 0.000784 0.004502 0.001898 0.001586
0.153400 -0.008685 0.001599 0.000797 0.004515 0.001904 0.001598
0.156200 -0.008755 0.001622 0.000811 0.004528 0.001910 0.001612
0.158900 -0.008822 0.001644 0.000824 0.004541 0.001916 0.001624
0.161600 -0.008888 0.001666 0.000837 0.004553 0.001923 0.001637
0.164400 -0.008955 0.001688 0.000851 0.004566 0.001929 0.001650
0.167100 -0.009018 0.001709 0.000864 0.004578 0.001935 0.001663
0.169900 -0.009084 0.001732 0.000878 0.004591 0.001942 0.001676
0.172600 -0.009146 0.001753 0.000891 0.004603 0.001949 0.001689
0.175300 -0.009207 0.001774 0.000904 0.004615 0.001955 0.001702
0.178100 -0.009269 0.001795 0.000917 0.004628 0.001962 0.001715
0.180800 -0.009329 0.001816 0.000930 0.004640 0.001968 0.001728
0.183600 -0.009390 0.001837 0.000943 0.004652 0.001975 0.001742
0.186300 -0.009448 0.001858 0.000956 0.004664 0.001982 0.001755
0.189000 -0.009505 0.001878 0.000969 0.004676 0.001989 0.001768
0.191800 -0.009564 0.001899 0.000982 0.004689 0.001996 0.001781
0.194500 -0.009620 0.001919 0.000995 0.004701 0.002003 0.001794
0.197300 -0.009678 0.001940 0.001008 0.004713 0.002010 0.001808
0.200000 -0.009733 0.001959 0.001020 0.004725 0.002017 0.001821
0.202700 -0.009787 0.001979 0.001033 0.004737 0.002024 0.001834
0.205500 -0.009843 0.001999 0.001045 0.004749 0.002031 0.001848
0.208200 -0.009896 0.002019 0.001058 0.004761 0.002038 0.001861
0.211000 -0.009950 0.002039 0.001071 0.004774 0.002046 0.001874
0.213700 -0.010002 0.002058 0.001083 0.004786 0.002053 0.001887
0.216400 -0.010054 0.002077 0.001095 0.004798 0.002060 0.001901
0.219200 -0.010107 0.002096 0.001108 0.004810 0.002067 0.001914
0.221900 -0.010158 0.002115 0.001120 0.004822 0.002074 0.001927
0.224700 -0.010210 0.002135 0.001132 0.004835 0.002082 0.001941
0.227400 -0.010259 0.002153 0.001144 0.004847 0.002089 0.001954
0.230100 -0.010309 0.002172 0.001156 0.004859 0.002096 0.001967
0.232900 -0.010359 0.002191 0.001169 0.004872 0.002104 0.001980
0.235600 -0.010408 0.002209 0.001180 0.004884 0.002111 0.001994
0.238400 -0.010458 0.002228 0.001193 0.004896 0.002119 0.002007
0.241100 -0.010506 0.002246 0.001204 0.004909 0.002126 0.002020
0.243800 -0.010553 0.002264 0.001216 0.004921 0.002133 0.002033
0.246600 -0.010602 0.002282 0.001228 0.004933 0.002141 0.002047
0.249300 -0.010649 0.002300 0.001239 0.004946 0.002148 0.002060
0.252100 -0.010697 0.002318 0.001251 0.004959 0.002155 0.002073
0.254800 -0.010743 0.002336 0.001263 0.004971 0.002162 0.002086
0.257500 -0.010789 0.002353 0.001274 0.004983 0.002170 0.002099
0.260300 -0.010836 0.002371 0.001286 0.004996 0.002177 0.002112
0.263000 -0.010881 0.002389 0.001297 0.005008 0.002184 0.002125
0.265800 -0.010928 0.002406 0.001309 0.005021 0.002192 0.002138
0.268500 -0.010972 0.002423 0.001320 0.005034 0.002199 0.002151
0.271200 -0.011017 0.002440 0.001331 0.005046 0.002206 0.002164
0.274000 -0.011062 0.002458 0.001342 0.005059 0.002213 0.002177
0.276700 -0.011106 0.002475 0.001353 0.005072 0.002220 0.002190
0.279500 -0.011151 0.002492 0.001364 0.005085 0.002228 0.002203
0.282200 -0.011195 0.002509 0.001375 0.005097 0.002235 0.002216
0.284900 -0.011238 0.002525 0.001386 0.005110 0.002242 0.002229
0.287700 -0.011282 0.002542 0.001397 0.005123 0.002249 0.002242
0.290400 -0.011325 0.002559 0.001408 0.005135 0.002256 0.002255
0.293200 -0.011369 0.002576 0.001419 0.005148 0.002263 0.002268
0.295900 -0.011411 0.002592 0.001429 0.005161 0.002270 0.002280
0.298600 -0.011454 0.002608 0.001440 0.005173 0.002277 0.002293
0.301400 -0.011497 0.002625 0.001451 0.005187 0.002284 0.002306
0.304100 -0.011539 0.002640 0.001461 0.005199 0.002290 0.002318
0.306900 -0.011582 0.002657 0.001472 0.005212 0.002297 0.002331
0.309600 -0.011623 0.002673 0.001482 0.005225 0.002304 0.002344
0.312300 -0.011664 0.002689 0.001492 0.005237 0.002311 0.002356
0.315100 -0.011706 0.002705 0.001502 0.005250 0.002317 0.002369
0.317800 -0.011747 0.002720 0.001512 0.005263 0.002324 0.002381
0.320600 -0.011789 0.002736 0.001523 0.005276 0.002331 0.002394
0.323300 -0.011830 0.002752 0.001533 0.005289 0.002337 0.002406
0.326000 -0.011870 0.002767 0.001543 0.005301 0.002343 0.002419
0.328800 -0.011911 0.002783 0.001553 0.005314 0.002350 0.002431
0.331500 -0.011951 0.002798 0.001563 0.005327 0.002356 0.002444
0.334300 -0.011993 0.002814 0.001573 0.005340 0.002363 0.002456
0.337000 -0.012032 0.002829 0.001582 0.005352 0.002369 0.002468
0.339700 -0.012072 0.002844 0.001592 0.005365 0.002375 0.002480
0.342500 -0.012113 0.002860 0.001602 0.005378 0.002381 0.002493
0.345200 -0.012152 0.002875 0.001611 0.005390 0.002387 0.002505
0.347900 -0.012191 0.002890 0.001620 0.005403 0.002393 0.002517
0.350700 -0.012231 0.002905 0.001630 0.005416 0.002399 0.002529
0.353400 -0.012270 0.002920 0.001639 0.005428 0.002405 0.002541
0.356200 -0.012310 0.002935 0.001649 0.005441 0.002411 0.002554
0.358900 -0.012349 0.002949 0.001658 0.005453 0.002417 0.002566
0.361600 -0.012387 0.002964 0.001667 0.005466 0.002422 0.002577
0.364400 -0.012427 0.002979 0.001676 0.005478 0.002428 0.002590
0.367100 -0.012465 0.002993 0.001685 0.005491 0.002434 0.002602
0.369900 -0.012505 0.003008 0.001695 0.005503 0.002439 0.002614
0.372600 -0.012543 0.003023 0.001703 0.005516 0.002445 0.002625
0.375300 -0.012581 0.003037 0.001712 0.005528 0.002450 0.002637
0.378100 -0.012620 0.003052 0.001721 0.005540 0.002456 0.002649
0.380800 -0.012657 0.003066 0.001730 0.005553 0.002461 0.002661
0.383600 -0.012696 0.003080 0.001739 0.005565 0.002466 0.002673
0.386300 -0.012734 0.003094 0.001747 0.005577 0.002471 0.002684
0.389000 -0.012771 0.003108 0.001756 0.005589 0.002477 0.002696
0.391800 -0.012810 0.003123 0.001764 0.005602 0.002482 0.002708
0.394500 -0.012847 0.003137 0.001773 0.005614 0.002487 0.002719
0.397300 -0.012885 0.003151 0.001781 0.005626 0.002492 0.002731
0.400000 -0.012922 0.003165 0.001790 0.005638 0.002497 0.002742
0.402700 -0.012959 0.003178 0.001798 0.005650 0.002501 0.002754
0.405500 -0.012997 0.003193 0.001806 0.005662 0.002506 0.002765
0.408200 -0.013034 0.003206 0.001814 0.005674 0.002511 0.002776
0.411000 -0.013071 0.003220 0.001823 0.005686 0.002516 0.002788
0.413700 -0.013108 0.003234 0.001831 0.005697 0.002520 0.002799
0.416400 -0.013144 0.003247 0.001838 0.005709 0.002525 0.002810
0.419200 -0.013182 0.003261 0.001847 0.005721 0.002529 0.002822
0.421900 -0.013218 0.003275 0.001854 0.005733 0.002534 0.002833
0.424700 -0.013256 0.003288 0.001862 0.005744 0.002538 0.002844
0.427400 -0.013292 0.003302 0.001870 0.005756 0.002542 0.002855
0.430100 -0.013328 0.003315 0.001878 0.005767 0.002547 0.002866
0.432900 -0.013365 0.003329 0.001885 0.005779 0.002551 0.002878
0.435600 -0.013401 0.003342 0.001893 0.005790 0.002555 0.002889
0.438400 -0.013438 0.003355 0.001901 0.005802 0.002559 0.002900
0.441100 -0.013473 0.003368 0.001908 0.005813 0.002563 0.002911
0.443800 -0.013509 0.003382 0.001915 0.005824 0.002567 0.002921
0.446600 -0.013546 0.003395 0.001923 0.005836 0.002571 0.002933
0.449300 -0.013581 0.003408 0.001930 0.005847 0.002575 0.002943
0.452100 -0.013618 0.003421 0.001937 0.005858 0.002579 0.002954
0.454800 -0.013653 0.003434 0.001945 0.005869 0.002582 0.002965
0.457500 -0.013688 0.003447 0.001952 0.005880 0.002586 0.002976
0.460300 -0.013724 0.003460 0.001959 0.005891 0.002590 0.002987
0.463000 -0.013759 0.003473 0.001966 0.005902 0.002593 0.002997
0.465800 -0.013796 0.003486 0.001973 0.005913 0.002597 0.003008
0.468500 -0.013831 0.003499 0.001980 0.005924 0.002600 0.003018
0.471200 -0.013865 0.003512 0.001986 0.005934 0.002604 0.003029
0.474000 -0.013901 0.003525 0.001993 0.005945 0.002607 0.003040
0.476700 -0.013936 0.003537 0.002000 0.005956 0.002610 0.003050
0.479500 -0.013972 0.003550 0.002007 0.005966 0.002614 0.003061
0.482200 -0.014007 0.003563 0.002013 0.005977 0.002617 0.003071
0.484900 -0.014041 0.003575 0.002020 0.005987 0.002620 0.003081
0.487700 -0.014077 0.003588 0.002027 0.005998 0.002623 0.003092
0.490400 -0.014111 0.003600 0.002033 0.006008 0.002626 0.003102
0.493200 -0.014147 0.003613 0.002040 0.006018 0.002629 0.003112
0.495900 -0.014181 0.003626 0.002046 0.006028 0.002632 0.003122
0.498600 -0.014215 0.003638 0.002052 0.006038 0.002635 0.003133
0.501400 -0.014250 0.003651 0.002058 0.006049 0.002638 0.003143
0.504100 -0.014285 0.003663 0.002065 0.006059 0.002641 0.003153
0.506900 -0.014320 0.003675 0.002071 0.006069 0.002643 0.003163
0.509600 -0.014354 0.003688 0.002077 0.006079 0.002646 0.003173
0.512300 -0.014388 0.003700 0.002083 0.006088 0.002649 0.003183
0.517800 -0.014456 0.003724 0.002095 0.006108 0.002654 0.003203
0.520600 -0.014491 0.003737 0.002101 0.006118 0.002656 0.003213
0.523300 -0.014525 0.003749 0.002107 0.006127 0.002659 0.003223
0.526000 -0.014558 0.003761 0.002112 0.006137 0.002661 0.003233
0.528800 -0.014593 0.003773 0.002118 0.006146 0.002664 0.003243
0.531500 -0.014627 0.003785 0.002124 0.006156 0.002666 0.003252
0.534300 -0.014661 0.003797 0.002130 0.006165 0.002668 0.003262
0.537000 -0.014695 0.003809 0.002135 0.006174 0.002671 0.003272
0.539700 -0.014728 0.003821 0.002141 0.006183 0.002673 0.003281
0.542500 -0.014762 0.003833 0.002146 0.006193 0.002675 0.003291
0.545200 -0.014796 0.003845 0.002152 0.006202 0.002677 0.003300
0.547900 -0.014829 0.003857 0.002157 0.006211 0.002679 0.003310
0.550700 -0.014863 0.003869 0.002162 0.006220 0.002681 0.003319
0.553400 -0.014896 0.003881 0.002168 0.006229 0.002683 0.003329
0.556200 -0.014930 0.003893 0.002173 0.006238 0.002685 0.003338
0.558900 -0.014963 0.003905 0.002178 0.006246 0.002687 0.003348
0.561600 -0.014996 0.003916 0.002183 0.006255 0.002689 0.003357
0.564400 -0.015030 0.003928 0.002188 0.006264 0.002691 0.003366
0.567100 -0.015063 0.003940 0.002193 0.006272 0.002692 0.003375
0.569900 -0.015097 0.003952 0.002199 0.006281 0.002694 0.003385
0.572600 -0.015129 0.003963 0.002203 0.006289 0.002696 0.003394
0.575300 -0.015162 0.003975 0.002208 0.006298 0.002698 0.003403
0.578100 -0.015196 0.003987 0.002213 0.006306 0.002699 0.003412
0.580800 -0.015228 0.003998 0.002218 0.006315 0.002701 0.003421
0.583600 -0.015262 0.004010 0.002223 0.006323 0.002702 0.003431
0.586300 -0.015294 0.004022 0.002228 0.006331 0.002704 0.003439
0.589000 -0.015326 0.004033 0.002232 0.006339 0.002705 0.003448
0.591800 -0.015360 0.004045 0.002237 0.006347 0.002707 0.003457
0.594500 -0.015392 0.004056 0.002241 0.006355 0.002708 0.003466
0.597300 -0.015426 0.004068 0.002246 0.006363 0.002710 0.003475
0.600000 -0.015458 0.004079 0.002251 0.006371 0.002711 0.003484
0.602700 -0.015490 0.004090 0.002255 0.006379 0.002712 0.003493
0.605500 -0.015523 0.004102 0.002259 0.006387 0.002714 0.003502
0.608200 -0.015555 0.004113 0.002264 0.006394 0.002715 0.003510
0.611000 -0.015588 0.004125 0.002268 0.006402 0.002716 0.003519
0.613700 -0.015620 0.004136 0.002272 0.006409 0.002717 0.003528
0.616400 -0.015652 0.004147 0.002277 0.006417 0.002719 0.003536
0.619200 -0.015685 0.004159 0.002281 0.006424 0.002720 0.003545
0.621900 -0.015717 0.004170 0.002285 0.006432 0.002721 0.003553
0.624700 -0.015750 0.004182 0.002289 0.006439 0.002722 0.003562
0.627400 -0.015781 0.004193 0.002293 0.006446 0.002723 0.003570
0.630100 -0.015813 0.004204 0.002297 0.006454 0.002724 0.003579
0.632900 -0.015846 0.004215 0.002301 0.006461 0.002725 0.003587
0.635600 -0.015877 0.004226 0.002305 0.006468 0.002726 0.003595
0.638400 -0.015910 0.004238 0.002309 0.006475 0.002727 0.003604
0.641100 -0.015941 0.004249 0.002313 0.006482 0.002728 0.003612
0.643800 -0.015973 0.004260 0.002317 0.006489 0.002729 0.003620
0.646600 -0.016005 0.004271 0.002321 0.006496 0.002730 0.003629
0.649300 -0.016037 0.004282 0.002324 0.006502 0.002731 0.003637
0.652100 -0.016069 0.004293 0.002328 0.006509 0.002731 0.003645
0.654800 -0.016100 0.004304 0.002332 0.006516 0.002732 0.003653
0.657500 -0.016132 0.004315 0.002335 0.006522 0.002733 0.003661
0.660300 -0.016164 0.004326 0.002339 0.006529 0.002734 0.003669
0.663000 -0.016195 0.004337 0.002342 0.006536 0.002734 0.003677
0.665800 -0.016227 0.004349 0.002346 0.006542 0.002735 0.003685
0.668500 -0.016258 0.004359 0.002349 0.006548 0.002736 0.003693
0.671200 -0.016289 0.004370 0.002353 0.006555 0.002736 0.003701
0.674000 -0.016321 0.004381 0.002356 0.006561 0.002737 0.003709
0.676700 -0.016352 0.004392 0.002360 0.006567 0.002738 0.003717
0.679500 -0.016384 0.004403 0.002363 0.006574 0.002738 0.003725
0.682200 -0.016415 0.004414 0.002366 0.006580 0.002739 0.003732
0.684900 -0.016446 0.004425 0.002369 0.006586 0.002739 0.003740
0.687700 -0.016478 0.004436 0.002373 0.006592 0.002740 0.003748
0.690400 -0.016508 0.004447 0.002376 0.006598 0.002740 0.003755
0.693200 -0.016540 0.004458 0.002379 0.006604 0.002741 0.003763
0.695900 -0.016571 0.004468 0.002382 0.006609 0.002741 0.003770
0.698600 -0.016601 0.004479 0.002385 0.006615 0.002742 0.003778
0.701400 -0.016633 0.004490 0.002388 0.006621 0.002742 0.003786
0.704100 -0.016663 0.004501 0.002391 0.006627 0.002742 0.003793
0.706900 -0.016695 0.004512 0.002394 0.006632 0.002743 0.003801
0.709600 -0.016725 0.004522 0.002397 0.006638 0.002743 0.003808
0.712300 -0.016756 0.004533 0.002400 0.006643 0.002744 0.003815
0.715100 -0.016787 0.004544 0.002403 0.006649 0.002744 0.003823
0.717800 -0.016817 0.004554 0.002406 0.006654 0.002744 0.003830
0.720600 -0.016849 0.004565 0.002408 0.006660 0.002744 0.003837
0.723300 -0.016879 0.004576 0.002411 0.006665 0.002745 0.003844
0.726000 -0.016909 0.004586 0.002414 0.006670 0.002745 0.003851
0.728800 -0.016940 0.004597 0.002416 0.006675 0.002745 0.003859
0.731500 -0.016970 0.004608 0.002419 0.006680 0.002745 0.003866
0.734300 -0.017002 0.004619 0.002422 0.006686 0.002746 0.003873
0.737000 -0.017032 0.004629 0.002424 0.006691 0.002746 0.003880
0.739700 -0.017062 0.004640 0.002427 0.006696 0.002746 0.003887
0.742500 -0.017093 0.004650 0.002429 0.006701 0.002746 0.003894
0.745200 -0.017123 0.004661 0.002432 0.006705 0.002746 0.003901
0.747900 -0.017152 0.004671 0.002434 0.006710 0.002747 0.003908
0.750700 -0.017183 0.004682 0.002437 0.006715 0.002747 0.003915
0.753400 -0.017213 0.004692 0.002439 0.006720 0.002747 0.003922
0.756200 -0.017244 0.004703 0.002441 0.006725 0.002747 0.003929
0.758900 -0.017274 0.004713 0.002444 0.006729 0.002747 0.003935
0.761600 -0.017303 0.004724 0.002446 0.006734 0.002747 0.003942
0.764400 -0.017334 0.004734 0.002448 0.006738 0.002747 0.003949
0.767100 -0.017364 0.004745 0.002450 0.006743 0.002747 0.003955
0.769900 -0.017394 0.004755 0.002453 0.006747 0.002747 0.003962
0.772600 -0.017424 0.004766 0.002455 0.006752 0.002747 0.003969
0.775300 -0.017453 0.004776 0.002457 0.006756 0.002747 0.003975
0.778100 -0.017484 0.004787 0.002459 0.006760 0.002747 0.003982
0.780800 -0.017513 0.004797 0.002461 0.006765 0.002747 0.003989
0.783600 -0.017544 0.004808 0.002463 0.006769 0.002747 0.003995
0.786300 -0.017573 0.004818 0.002465 0.006773 0.002747 0.004002
0.789000 -0.017602 0.004828 0.002467 0.006777 0.002747 0.004008
0.791800 -0.017633 0.004839 0.002469 0.006781 0.002747 0.004014
0.794500 -0.017662 0.004849 0.002471 0.006785 0.002747 0.004021
0.797300 -0.017692 0.004859 0.002473 0.006789 0.002747 0.004027
0.800000 -0.017721 0.004870 0.002475 0.006793 0.002747 0.004033
0.802700 -0.017750 0.004880 0.002477 0.006797 0.002747 0.004040
0.805500 -0.017780 0.004890 0.002479 0.006801 0.002747 0.004046
0.808200 -0.017810 0.004901 0.002480 0.006805 0.002746 0.004052
0.811000 -0.017840 0.004911 0.002482 0.006809 0.002746 0.004058
0.813700 -0.017869 0.004921 0.002484 0.006812 0.002746 0.004064
0.819200 -0.017927 0.004942 0.002487 0.006820 0.002746 0.004077
0.821900 -0.017956 0.004952 0.002489 0.006823 0.002746 0.004083
0.824700 -0.017986 0.004962 0.002490 0.006827 0.002746 0.004089
0.827400 -0.018015 0.004972 0.002492 0.006830 0.002745 0.004095
0.830100 -0.018044 0.004982 0.002494 0.006834 0.002745 0.004101
0.832900 -0.018074 0.004993 0.002495 0.006837 0.002745 0.004107
0.835600 -0.018102 0.005003 0.002497 0.006840 0.002745 0.004112
0.838400 -0.018132 0.005013 0.002498 0.006844 0.002745 0.004118
0.841100 -0.018161 0.005023 0.002500 0.006847 0.002744 0.004124
0.846600 -0.018219 0.005044 0.002503 0.006853 0.002744 0.004136
0.849300 -0.018247 0.005054 0.002504 0.006857 0.002744 0.004141
0.852100 -0.018277 0.005064 0.002505 0.006860 0.002744 0.004147
0.854800 -0.018305 0.005074 0.002507 0.006863 0.002743 0.004153
0.857500 -0.018334 0.005084 0.002508 0.006866 0.002743 0.004158
