# time (yr) north(m) east(m) up(m) northsigma(m) eastsigma(m) upsigma(m)
0.000000 0.000000 0.000000 0.000000 0.002002 0.000772 0.001798
0.002700 -0.000024 -0.000002 0.000021 0.002006 0.000772 0.001798
0.005500 -0.000050 -0.000003 0.000043 0.002018 0.000772 0.001799
0.008200 -0.000074 -0.000005 0.000065 0.002034 0.000773 0.001800
0.011000 -0.000099 -0.000007 0.000087 0.002053 0.000773 0.001802
0.013700 -0.000123 -0.000010 0.000108 0.002074 0.000774 0.001804
0.016400 -0.000147 -0.000012 0.000129 0.002096 0.000775 0.001807
0.019200 -0.000172 -0.000014 0.000151 0.002119 0.000776 0.001810
0.021900 -0.000196 -0.000016 0.000171 0.002141 0.000777 0.001813
0.024700 -0.000220 -0.000019 0.000193 0.002163 0.000778 0.001818
0.027400 -0.000244 -0.000021 0.000214 0.002184 0.000780 0.001822
0.030100 -0.000267 -0.000024 0.000235 0.002205 0.000781 0.001827
0.032900 -0.000291 -0.000026 0.000257 0.002225 0.000783 0.001832
0.035600 -0.000315 -0.000029 0.000277 0.002244 0.000785 0.001838
0.038400 -0.000338 -0.000031 0.000299 0.002262 0.000787 0.001844
0.041100 -0.000361 -0.000034 0.000319 0.002279 0.000789 0.001851
0.043800 -0.000384 -0.000037 0.000340 0.002296 0.000791 0.001857
0.046600 -0.000407 -0.000039 0.000361 0.002312 0.000793 0.001865
0.049300 -0.000429 -0.000042 0.000382 0.002327 0.000796 0.001872
0.052100 -0.000452 -0.000045 0.000403 0.002341 0.000798 0.001880
0.054800 -0.000474 -0.000047 0.000423 0.002355 0.000801 0.001888
0.057500 -0.000496 -0.000050 0.000444 0.002368 0.000803 0.001897
0.060300 -0.000518 -0.000053 0.000464 0.002381 0.000806 0.001906
0.063000 -0.000540 -0.000055 0.000485 0.002393 0.000809 0.001914
0.065800 -0.000562 -0.000058 0.000505 0.002405 0.000812 0.001924
0.068500 -0.000583 -0.000060 0.000525 0.002416 0.000815 0.001933
0.071200 -0.000604 -0.000063 0.000545 0.002427 0.000819 0.001943
0.074000 -0.000625 -0.000066 0.000566 0.002438 0.000822 0.001953
0.076700 -0.000646 -0.000068 0.000586 0.002449 0.000826 0.001964
0.079500 -0.000667 -0.000071 0.000606 0.002459 0.000829 0.001974
0.082200 -0.000687 -0.000074 0.000626 0.002469 0.000833 0.001985
0.084900 -0.000707 -0.000076 0.000645 0.002479 0.000837 0.001996
0.087700 -0.000728 -0.000079 0.000665 0.002488 0.000840 0.002007
0.090400 -0.000747 -0.000081 0.000685 0.002498 0.000844 0.002018
0.093200 -0.000768 -0.000084 0.000705 0.002507 0.000848 0.002030
0.095900 -0.000787 -0.000086 0.000724 0.002517 0.000853 0.002041
0.098600 -0.000806 -0.000089 0.000743 0.002526 0.000857 0.002053
0.101400 -0.000826 -0.000092 0.000763 0.002535 0.000861 0.002065
0.104100 -0.000845 -0.000094 0.000781 0.002544 0.000865 0.002076
0.106900 -0.000864 -0.000097 0.000801 0.002553 0.000870 0.002089
0.109600 -0.000883 -0.000099 0.000820 0.002562 0.000874 0.002101
0.112300 -0.000901 -0.000102 0.000838 0.002571 0.000879 0.002113
0.115100 -0.000920 -0.000104 0.000857 0.002580 0.000884 0.002126
0.117800 -0.000938 -0.000107 0.000876 0.002588 0.000888 0.002138
0.120600 -0.000957 -0.000109 0.000894 0.002597 0.000893 0.002151
0.123300 -0.000975 -0.000112 0.000913 0.002606 0.000898 0.002163
0.126000 -0.000993 -0.000114 0.000931 0.002614 0.000903 0.002175
0.128800 -0.001011 -0.000117 0.000949 0.002623 0.000908 0.002188
0.131500 -0.001028 -0.000119 0.000967 0.002632 0.000913 0.002201
0.134300 -0.001046 -0.000121 0.000985 0.002641 0.000919 0.002214
0.137000 -0.001063 -0.000124 0.001003 0.002649 0.000924 0.002227
0.139700 -0.001080 -0.000126 0.001021 0.002658 0.000929 0.002239
0.142500 -0.001097 -0.000129 0.001039 0.002666 0.000934 0.002252
0.145200 -0.001114 -0.000131 0.001056 0.002675 0.000940 0.002265
0.147900 -0.001131 -0.000133 0.001073 0.002683 0.000945 0.002278
0.150700 -0.001148 -0.000136 0.001091 0.002692 0.000951 0.002291
0.153400 -0.001164 -0.000138 0.001108 0.002700 0.000956 0.002304
0.156200 -0.001181 -0.000140 0.001125 0.002709 0.000962 0.002317
0.158900 -0.001197 -0.000143 0.001142 0.002717 0.000967 0.002330
0.161600 -0.001213 -0.000145 0.001158 0.002725 0.000973 0.002342
0.164400 -0.001229 -0.000147 0.001175 0.002734 0.000979 0.002355
0.167100 -0.001245 -0.000150 0.001192 0.002742 0.000984 0.002368
0.169900 -0.001261 -0.000152 0.001209 0.002750 0.000990 0.002381
0.172600 -0.001277 -0.000154 0.001225 0.002758 0.000996 0.002394
0.175300 -0.001292 -0.000156 0.001241 0.002766 0.001002 0.002406
0.178100 -0.001308 -0.000159 0.001257 0.002774 0.001008 0.002419
0.180800 -0.001323 -0.000161 0.001273 0.002782 0.001014 0.002432
0.183600 -0.001338 -0.000163 0.001289 0.002790 0.001020 0.002445
0.186300 -0.001353 -0.000165 0.001305 0.002798 0.001026 0.002457
0.189000 -0.001368 -0.000167 0.001320 0.002805 0.001032 0.002469
0.191800 -0.001383 -0.000170 0.001336 0.002813 0.001038 0.002482
0.194500 -0.001398 -0.000172 0.001351 0.002820 0.001044 0.002494
0.197300 -0.001413 -0.000174 0.001367 0.002828 0.001050 0.002507
0.200000 -0.001427 -0.000176 0.001382 0.002835 0.001056 0.002519
0.202700 -0.001442 -0.000178 0.001397 0.002843 0.001062 0.002531
0.205500 -0.001456 -0.000180 0.001412 0.002850 0.001069 0.002544
0.208200 -0.001470 -0.000183 0.001427 0.002857 0.001075 0.002556
0.211000 -0.001485 -0.000185 0.001442 0.002864 0.001081 0.002568
0.213700 -0.001499 -0.000187 0.001456 0.002871 0.001088 0.002580
0.216400 -0.001513 -0.000189 0.001470 0.002878 0.001094 0.002591
0.219200 -0.001527 -0.000191 0.001485 0.002885 0.001100 0.002604
0.221900 -0.001541 -0.000193 0.001499 0.002891 0.001106 0.002615
0.224700 -0.001555 -0.000195 0.001514 0.002898 0.001113 0.002627
0.227400 -0.001568 -0.000197 0.001528 0.002904 0.001119 0.002639
0.230100 -0.001582 -0.000199 0.001541 0.002911 0.001125 0.002650
0.232900 -0.001595 -0.000201 0.001555 0.002917 0.001132 0.002662
0.235600 -0.001609 -0.000203 0.001569 0.002923 0.001138 0.002673
0.238400 -0.001622 -0.000205 0.001583 0.002929 0.001145 0.002685
0.241100 -0.001635 -0.000207 0.001596 0.002935 0.001151 0.002696
0.243800 -0.001648 -0.000209 0.001609 0.002941 0.001157 0.002707
0.246600 -0.001662 -0.000211 0.001623 0.002947 0.001164 0.002718
0.249300 -0.001674 -0.000213 0.001636 0.002952 0.001170 0.002729
0.252100 -0.001688 -0.000215 0.001649 0.002958 0.001177 0.002740
0.254800 -0.001700 -0.000217 0.001662 0.002963 0.001183 0.002751
0.257500 -0.001713 -0.000219 0.001674 0.002969 0.001189 0.002762
0.260300 -0.001726 -0.000221 0.001687 0.002974 0.001196 0.002773
0.263000 -0.001738 -0.000223 0.001700 0.002979 0.001202 0.002783
0.265800 -0.001751 -0.000225 0.001712 0.002984 0.001209 0.002794
0.268500 -0.001764 -0.000227 0.001724 0.002989 0.001215 0.002804
0.271200 -0.001776 -0.000229 0.001737 0.002994 0.001222 0.002814
0.274000 -0.001789 -0.000231 0.001749 0.002999 0.001228 0.002825
0.276700 -0.001801 -0.000233 0.001761 0.003003 0.001235 0.002835
0.279500 -0.001813 -0.000235 0.001773 0.003008 0.001241 0.002845
0.282200 -0.001825 -0.000236 0.001785 0.003012 0.001248 0.002855
0.284900 -0.001837 -0.000238 0.001796 0.003016 0.001254 0.002865
0.287700 -0.001849 -0.000240 0.001808 0.003021 0.001260 0.002875
0.290400 -0.001861 -0.000242 0.001819 0.003025 0.001267 0.002885
0.293200 -0.001873 -0.000244 0.001831 0.003029 0.001273 0.002894
0.295900 -0.001885 -0.000246 0.001842 0.003032 0.001280 0.002904
0.298600 -0.001897 -0.000248 0.001853 0.003036 0.001286 0.002913
0.301400 -0.001909 -0.000249 0.001864 0.003040 0.001293 0.002923
0.304100 -0.001920 -0.000251 0.001875 0.003043 0.001299 0.002932
0.306900 -0.001932 -0.000253 0.001886 0.003047 0.001305 0.002942
0.309600 -0.001944 -0.000255 0.001897 0.003050 0.001312 0.002951
0.312300 -0.001955 -0.000256 0.001908 0.003054 0.001318 0.002960
0.315100 -0.001967 -0.000258 0.001918 0.003057 0.001325 0.002969
0.317800 -0.001978 -0.000260 0.001929 0.003060 0.001331 0.002978
0.320600 -0.001990 -0.000262 0.001939 0.003063 0.001337 0.002987
0.323300 -0.002001 -0.000264 0.001949 0.003066 0.001344 0.002995
0.326000 -0.002012 -0.000265 0.001959 0.003069 0.001350 0.003004
0.328800 -0.002023 -0.000267 0.001970 0.003071 0.001356 0.003013
0.331500 -0.002034 -0.000269 0.001980 0.003074 0.001363 0.003021
0.334300 -0.002046 -0.000270 0.001990 0.003077 0.001369 0.003030
0.337000 -0.002057 -0.000272 0.001999 0.003079 0.001375 0.003038
0.339700 -0.002068 -0.000274 0.002009 0.003081 0.001381 0.003046
0.342500 -0.002079 -0.000276 0.002019 0.003084 0.001388 0.003054
0.345200 -0.002090 -0.000277 0.002028 0.003086 0.001394 0.003062
0.347900 -0.002100 -0.000279 0.002037 0.003088 0.001400 0.003070
0.350700 -0.002111 -0.000281 0.002047 0.003090 0.001407 0.003078
0.353400 -0.002122 -0.000282 0.002056 0.003092 0.001413 0.003086
0.356200 -0.002133 -0.000284 0.002065 0.003094 0.001419 0.003094
0.358900 -0.002144 -0.000285 0.002074 0.003096 0.001425 0.003102
0.361600 -0.002154 -0.000287 0.002083 0.003097 0.001431 0.003109
0.364400 -0.002165 -0.000289 0.002092 0.003099 0.001438 0.003117
0.367100 -0.002175 -0.000290 0.002101 0.003101 0.001444 0.003124
0.369900 -0.002186 -0.000292 0.002110 0.003102 0.001450 0.003132
0.372600 -0.002196 -0.000294 0.002118 0.003103 0.001456 0.003139
0.375300 -0.002207 -0.000295 0.002127 0.003105 0.001462 0.003146
0.378100 -0.002217 -0.000297 0.002135 0.003106 0.001468 0.003153
0.380800 -0.002228 -0.000298 0.002143 0.003107 0.001474 0.003160
0.383600 -0.002238 -0.000300 0.002152 0.003108 0.001480 0.003167
0.386300 -0.002248 -0.000301 0.002160 0.003109 0.001486 0.003174
0.389000 -0.002258 -0.000303 0.002168 0.003110 0.001492 0.003181
0.391800 -0.002269 -0.000305 0.002176 0.003111 0.001498 0.003188
0.394500 -0.002279 -0.000306 0.002184 0.003112 0.001504 0.003195
0.397300 -0.002289 -0.000308 0.002192 0.003113 0.001511 0.003201
0.400000 -0.002299 -0.000309 0.002199 0.003114 0.001516 0.003208
0.402700 -0.002309 -0.000311 0.002207 0.003114 0.001522 0.003214
0.405500 -0.002319 -0.000312 0.002215 0.003115 0.001528 0.003221
0.408200 -0.002329 -0.000314 0.002222 0.003116 0.001534 0.003227
0.411000 -0.002340 -0.000315 0.002230 0.003116 0.001540 0.003234
0.413700 -0.002349 -0.000317 0.002237 0.003117 0.001546 0.003240
0.416400 -0.002359 -0.000318 0.002244 0.003117 0.001552 0.003246
0.419200 -0.002369 -0.000320 0.002252 0.003117 0.001558 0.003252
0.421900 -0.002379 -0.000321 0.002259 0.003118 0.001564 0.003258
0.424700 -0.002389 -0.000323 0.002266 0.003118 0.001569 0.003264
0.427400 -0.002399 -0.000324 0.002273 0.003118 0.001575 0.003270
0.430100 -0.002408 -0.000325 0.002279 0.003118 0.001581 0.003275
0.432900 -0.002418 -0.000327 0.002286 0.003118 0.001587 0.003281
0.435600 -0.002428 -0.000328 0.002293 0.003118 0.001592 0.003287
0.438400 -0.002438 -0.000330 0.002300 0.003118 0.001598 0.003293
0.441100 -0.002447 -0.000331 0.002306 0.003118 0.001604 0.003298
0.443800 -0.002456 -0.000333 0.002313 0.003118 0.001609 0.003304
0.446600 -0.002466 -0.000334 0.002319 0.003118 0.001615 0.003309
0.449300 -0.002476 -0.000335 0.002326 0.003117 0.001621 0.003314
0.452100 -0.002485 -0.000337 0.002332 0.003117 0.001627 0.003320
0.454800 -0.002495 -0.000338 0.002338 0.003117 0.001632 0.003325
0.457500 -0.002504 -0.000340 0.002344 0.003117 0.001638 0.003330
0.460300 -0.002514 -0.000341 0.002350 0.003116 0.001643 0.003335
0.463000 -0.002523 -0.000342 0.002356 0.003116 0.001649 0.003340
0.465800 -0.002532 -0.000344 0.002362 0.003115 0.001654 0.003345
0.468500 -0.002542 -0.000345 0.002368 0.003115 0.001660 0.003350
0.471200 -0.002551 -0.000346 0.002374 0.003114 0.001665 0.003355
0.474000 -0.002560 -0.000348 0.002380 0.003114 0.001671 0.003360
0.476700 -0.002569 -0.000349 0.002385 0.003113 0.001676 0.003365
0.479500 -0.002579 -0.000350 0.002391 0.003112 0.001682 0.003369
0.482200 -0.002588 -0.000352 0.002397 0.003112 0.001687 0.003374
0.484900 -0.002597 -0.000353 0.002402 0.003111 0.001692 0.003379
0.487700 -0.002606 -0.000354 0.002408 0.003110 0.001698 0.003383
0.490400 -0.002615 -0.000356 0.002413 0.003109 0.001703 0.003388
0.493200 -0.002625 -0.000357 0.002418 0.003109 0.001709 0.003392
0.495900 -0.002634 -0.000358 0.002423 0.003108 0.001714 0.003396
0.498600 -0.002643 -0.000360 0.002428 0.003107 0.001719 0.003401
0.501400 -0.002652 -0.000361 0.002434 0.003106 0.001725 0.003405
0.504100 -0.002661 -0.000362 0.002439 0.003105 0.001730 0.003409
0.506900 -0.002670 -0.000363 0.002444 0.003104 0.001735 0.003413
0.509600 -0.002679 -0.000365 0.002449 0.003103 0.001740 0.003417
0.512300 -0.002688 -0.000366 0.002453 0.003102 0.001745 0.003421
0.517800 -0.002705 -0.000368 0.002463 0.003100 0.001756 0.003429
0.520600 -0.002714 -0.000370 0.002468 0.003099 0.001761 0.003433
0.523300 -0.002723 -0.000371 0.002472 0.003098 0.001766 0.003437
0.526000 -0.002732 -0.000372 0.002477 0.003097 0.001771 0.003441
0.528800 -0.002741 -0.000373 0.002481 0.003095 0.001776 0.003445
0.531500 -0.002750 -0.000375 0.002486 0.003094 0.001781 0.003448
0.534300 -0.002758 -0.000376 0.002490 0.003093 0.001786 0.003452
0.537000 -0.002767 -0.000377 0.002495 0.003092 0.001791 0.003456
0.539700 -0.002776 -0.000378 0.002499 0.003091 0.001796 0.003459
0.542500 -0.002785 -0.000380 0.002503 0.003089 0.001801 0.003463
0.545200 -0.002793 -0.000381 0.002507 0.003088 0.001806 0.003466
0.547900 -0.002802 -0.000382 0.002511 0.003087 0.001811 0.003470
0.550700 -0.002811 -0.000383 0.002515 0.003085 0.001816 0.003473
0.553400 -0.002819 -0.000384 0.002519 0.003084 0.001821 0.003476
0.556200 -0.002828 -0.000385 0.002523 0.003083 0.001826 0.003480
0.558900 -0.002836 -0.000387 0.002527 0.003081 0.001831 0.003483
0.561600 -0.002845 -0.000388 0.002531 0.003080 0.001835 0.003486
0.564400 -0.002853 -0.000389 0.002535 0.003079 0.001840 0.003489
0.567100 -0.002862 -0.000390 0.002539 0.003077 0.001845 0.003492
0.569900 -0.002871 -0.000391 0.002542 0.003076 0.001850 0.003496
0.572600 -0.002879 -0.000392 0.002546 0.003074 0.001855 0.003499
0.575300 -0.002887 -0.000394 0.002550 0.003073 0.001859 0.003502
0.578100 -0.002896 -0.000395 0.002553 0.003072 0.001864 0.003505
0.580800 -0.002904 -0.000396 0.002557 0.003070 0.001869 0.003507
0.583600 -0.002913 -0.000397 0.002560 0.003069 0.001874 0.003510
0.586300 -0.002921 -0.000398 0.002564 0.003067 0.001878 0.003513
0.589000 -0.002929 -0.000399 0.002567 0.003066 0.001883 0.003516
0.591800 -0.002938 -0.000400 0.002570 0.003064 0.001887 0.003519
0.594500 -0.002946 -0.000401 0.002574 0.003063 0.001892 0.003521
0.597300 -0.002955 -0.000402 0.002577 0.003061 0.001897 0.003524
0.600000 -0.002963 -0.000404 0.002580 0.003060 0.001901 0.003527
0.602700 -0.002971 -0.000405 0.002583 0.003058 0.001906 0.003529
0.605500 -0.002979 -0.000406 0.002586 0.003057 0.001910 0.003532
0.608200 -0.002987 -0.000407 0.002589 0.003055 0.001915 0.003535
0.611000 -0.002996 -0.000408 0.002592 0.003053 0.001919 0.003537
0.613700 -0.003004 -0.000409 0.002595 0.003052 0.001924 0.003540
0.616400 -0.003012 -0.000410 0.002598 0.003050 0.001928 0.003542
0.619200 -0.003020 -0.000411 0.002601 0.003049 0.001933 0.003544
0.621900 -0.003028 -0.000412 0.002604 0.003047 0.001937 0.003547
0.624700 -0.003037 -0.000413 0.002607 0.003046 0.001941 0.003549
0.627400 -0.003045 -0.000414 0.002609 0.003044 0.001946 0.003551
0.630100 -0.003053 -0.000415 0.002612 0.003042 0.001950 0.003554
0.632900 -0.003061 -0.000416 0.002615 0.003041 0.001954 0.003556
0.635600 -0.003069 -0.000417 0.002617 0.003039 0.001959 0.003558
0.638400 -0.003077 -0.000418 0.002620 0.003038 0.001963 0.003560
0.641100 -0.003085 -0.000419 0.002622 0.003036 0.001967 0.003562
0.643800 -0.003093 -0.000420 0.002625 0.003034 0.001972 0.003564
0.646600 -0.003101 -0.000421 0.002627 0.003033 0.001976 0.003566
0.649300 -0.003109 -0.000422 0.002630 0.003031 0.001980 0.003568
0.652100 -0.003117 -0.000424 0.002632 0.003029 0.001984 0.003571
0.654800 -0.003125 -0.000425 0.002634 0.003028 0.001988 0.003572
0.657500 -0.003133 -0.000426 0.002637 0.003026 0.001993 0.003574
0.660300 -0.003141 -0.000427 0.002639 0.003025 0.001997 0.003576
0.663000 -0.003149 -0.000428 0.002641 0.003023 0.002001 0.003578
0.665800 -0.003157 -0.000429 0.002644 0.003021 0.002005 0.003580
0.668500 -0.003165 -0.000429 0.002646 0.003020 0.002009 0.003582
0.671200 -0.003173 -0.000430 0.002648 0.003018 0.002013 0.003584
0.674000 -0.003181 -0.000431 0.002650 0.003017 0.002017 0.003586
0.676700 -0.003188 -0.000432 0.002652 0.003015 0.002021 0.003587
0.679500 -0.003196 -0.000433 0.002654 0.003013 0.002025 0.003589
0.682200 -0.003204 -0.000434 0.002656 0.003012 0.002029 0.003591
0.684900 -0.003212 -0.000435 0.002658 0.003010 0.002033 0.003592
0.687700 -0.003220 -0.000436 0.002660 0.003008 0.002037 0.003594
0.690400 -0.003228 -0.000437 0.002662 0.003007 0.002041 0.003596
0.693200 -0.003235 -0.000438 0.002664 0.003005 0.002045 0.003597
0.695900 -0.003243 -0.000439 0.002665 0.003004 0.002049 0.003599
0.698600 -0.003251 -0.000440 0.002667 0.003002 0.002053 0.003600
0.701400 -0.003259 -0.000441 0.002669 0.003000 0.002057 0.003602
0.704100 -0.003266 -0.000442 0.002671 0.002999 0.002060 0.003603
0.706900 -0.003274 -0.000443 0.002672 0.002997 0.002064 0.003605
0.709600 -0.003282 -0.000444 0.002674 0.002995 0.002068 0.003606
0.712300 -0.003289 -0.000445 0.002675 0.002994 0.002072 0.003608
0.715100 -0.003297 -0.000446 0.002677 0.002992 0.002076 0.003609
0.717800 -0.003305 -0.000447 0.002679 0.002991 0.002079 0.003610
0.720600 -0.003312 -0.000447 0.002680 0.002989 0.002083 0.003612
0.723300 -0.003320 -0.000448 0.002682 0.002988 0.002087 0.003613
0.726000 -0.003327 -0.000449 0.002683 0.002986 0.002091 0.003614
0.728800 -0.003335 -0.000450 0.002685 0.002984 0.002094 0.003616
0.731500 -0.003343 -0.000451 0.002686 0.002983 0.002098 0.003617
0.734300 -0.003350 -0.000452 0.002687 0.002981 0.002102 0.003618
0.737000 -0.003358 -0.000453 0.002689 0.002980 0.002105 0.003619
0.739700 -0.003365 -0.000454 0.002690 0.002978 0.002109 0.003620
0.742500 -0.003373 -0.000455 0.002691 0.002976 0.002113 0.003622
0.745200 -0.003380 -0.000455 0.002693 0.002975 0.002116 0.003623
0.747900 -0.003388 -0.000456 0.002694 0.002973 0.002120 0.003624
0.750700 -0.003396 -0.000457 0.002695 0.002972 0.002123 0.003625
0.753400 -0.003403 -0.000458 0.002696 0.002970 0.002127 0.003626
0.756200 -0.003411 -0.000459 0.002698 0.002969 0.002130 0.003627
0.758900 -0.003418 -0.000460 0.002699 0.002967 0.002134 0.003628
0.761600 -0.003425 -0.000461 0.002700 0.002966 0.002137 0.003629
0.764400 -0.003433 -0.000461 0.002701 0.002964 0.002141 0.003630
0.767100 -0.003440 -0.000462 0.002702 0.002963 0.002144 0.003631
0.769900 -0.003448 -0.000463 0.002703 0.002961 0.002148 0.003632
0.772600 -0.003455 -0.000464 0.002704 0.002960 0.002151 0.003633
0.775300 -0.003462 -0.000465 0.002705 0.002958 0.002154 0.003634
0.778100 -0.003470 -0.000466 0.002706 0.002957 0.002158 0.003635
0.780800 -0.003477 -0.000466 0.002707 0.002955 0.002161 0.003636
0.783600 -0.003485 -0.000467 0.002708 0.002954 0.002165 0.003637
0.786300 -0.003492 -0.000468 0.002709 0.002952 0.002168 0.003638
0.789000 -0.003499 -0.000469 0.002709 0.002951 0.002171 0.003638
0.791800 -0.003507 -0.000470 0.002710 0.002949 0.002175 0.003639
0.794500 -0.003514 -0.000471 0.002711 0.002948 0.002178 0.003640
0.797300 -0.003521 -0.000471 0.002712 0.002946 0.002181 0.003641
0.800000 -0.003528 -0.000472 0.002713 0.002945 0.002184 0.003642
0.802700 -0.003536 -0.000473 0.002713 0.002944 0.002188 0.003642
0.805500 -0.003543 -0.000474 0.002714 0.002942 0.002191 0.003643
0.808200 -0.003550 -0.000475 0.002715 0.002941 0.002194 0.003644
0.811000 -0.003558 -0.000475 0.002716 0.002939 0.002197 0.003645
0.813700 -0.003565 -0.000476 0.002716 0.002938 0.002200 0.003645
0.816400 -0.003572 -0.000477 0.002717 0.002936 0.002204 0.003646
0.819200 -0.003579 -0.000478 0.002718 0.002935 0.002207 0.003647
0.821900 -0.003586 -0.000479 0.002718 0.002934 0.002210 0.003647
0.824700 -0.003594 -0.000479 0.002719 0.002932 0.002213 0.003648
0.827400 -0.003601 -0.000480 0.002719 0.002931 0.002216 0.003649
0.830100 -0.003608 -0.000481 0.002720 0.002929 0.002219 0.003649
0.832900 -0.003615 -0.000482 0.002720 0.002928 0.002222 0.003650
0.835600 -0.003622 -0.000482 0.002721 0.002927 0.002225 0.003651
0.838400 -0.003629 -0.000483 0.002721 0.002925 0.002228 0.003651
