# time (yr) north(m) east(m) up(m) northsigma(m) eastsigma(m) upsigma(m)
0.000000 0.000000 0.000000 0.000000 0.001406 0.001521 0.002409
0.002700 -0.000061 -0.000004 -0.000014 0.001410 0.001521 0.002410
0.005500 -0.000123 -0.000008 -0.000029 0.001423 0.001523 0.002410
0.008200 -0.000183 -0.000011 -0.000043 0.001441 0.001525 0.002412
0.011000 -0.000244 -0.000014 -0.000057 0.001464 0.001528 0.002413
0.013700 -0.000302 -0.000017 -0.000071 0.001489 0.001531 0.002416
0.016400 -0.000360 -0.000020 -0.000084 0.001515 0.001536 0.002418
0.019200 -0.000419 -0.000023 -0.000098 0.001543 0.001541 0.002421
0.021900 -0.000475 -0.000026 -0.000111 0.001571 0.001546 0.002425
0.024700 -0.000532 -0.000029 -0.000125 0.001600 0.001552 0.002428
0.027400 -0.000587 -0.000032 -0.000138 0.001627 0.001559 0.002433
0.030100 -0.000640 -0.000035 -0.000151 0.001655 0.001565 0.002437
0.032900 -0.000695 -0.000037 -0.000164 0.001683 0.001573 0.002442
0.035600 -0.000747 -0.000040 -0.000176 0.001710 0.001580 0.002447
0.038400 -0.000800 -0.000043 -0.000189 0.001737 0.001589 0.002453
0.041100 -0.000850 -0.000045 -0.000201 0.001763 0.001597 0.002458
0.043800 -0.000899 -0.000047 -0.000213 0.001789 0.001605 0.002464
0.046600 -0.000949 -0.000050 -0.000225 0.001815 0.001614 0.002471
0.049300 -0.000997 -0.000052 -0.000237 0.001840 0.001623 0.002477
0.052100 -0.001045 -0.000054 -0.000249 0.001865 0.001632 0.002484
0.054800 -0.001091 -0.000056 -0.000260 0.001889 0.001642 0.002491
0.057500 -0.001135 -0.000059 -0.000271 0.001913 0.001651 0.002498
0.060300 -0.001181 -0.000061 -0.000282 0.001937 0.001660 0.002505
0.063000 -0.001224 -0.000063 -0.000292 0.001960 0.001670 0.002513
0.065800 -0.001268 -0.000065 -0.000303 0.001984 0.001680 0.002521
0.068500 -0.001309 -0.000066 -0.000313 0.002006 0.001689 0.002528
0.071200 -0.001349 -0.000068 -0.000323 0.002029 0.001699 0.002536
0.074000 -0.001391 -0.000070 -0.000333 0.002051 0.001709 0.002544
0.076700 -0.001429 -0.000071 -0.000342 0.002073 0.001718 0.002552
0.079500 -0.001469 -0.000073 -0.000352 0.002096 0.001728 0.002561
0.082200 -0.001506 -0.000075 -0.000361 0.002117 0.001738 0.002569
0.084900 -0.001542 -0.000076 -0.000370 0.002138 0.001747 0.002578
0.087700 -0.001579 -0.000077 -0.000378 0.002160 0.001757 0.002586
0.090400 -0.001614 -0.000079 -0.000387 0.002181 0.001766 0.002595
0.093200 -0.001649 -0.000080 -0.000395 0.002202 0.001776 0.002604
0.095900 -0.001683 -0.000081 -0.000403 0.002223 0.001785 0.002612
0.098600 -0.001715 -0.000082 -0.000411 0.002243 0.001795 0.002621
0.101400 -0.001748 -0.000083 -0.000418 0.002264 0.001804 0.002630
0.104100 -0.001779 -0.000084 -0.000425 0.002283 0.001814 0.002639
0.106900 -0.001811 -0.000085 -0.000433 0.002304 0.001823 0.002648
0.109600 -0.001841 -0.000086 -0.000439 0.002323 0.001832 0.002657
0.112300 -0.001870 -0.000087 -0.000446 0.002343 0.001841 0.002666
0.115100 -0.001899 -0.000088 -0.000452 0.002362 0.001850 0.002675
0.117800 -0.001927 -0.000089 -0.000459 0.002381 0.001859 0.002684
0.120600 -0.001955 -0.000090 -0.000465 0.002401 0.001868 0.002693
0.123300 -0.001981 -0.000090 -0.000470 0.002419 0.001877 0.002702
0.126000 -0.002007 -0.000091 -0.000476 0.002438 0.001886 0.002711
0.128800 -0.002033 -0.000092 -0.000481 0.002457 0.001895 0.002720
0.131500 -0.002058 -0.000092 -0.000486 0.002475 0.001903 0.002729
0.134300 -0.002083 -0.000093 -0.000491 0.002493 0.001912 0.002738
0.137000 -0.002106 -0.000093 -0.000496 0.002511 0.001920 0.002747
0.139700 -0.002129 -0.000094 -0.000501 0.002528 0.001929 0.002755
0.142500 -0.002152 -0.000094 -0.000505 0.002546 0.001937 0.002765
0.145200 -0.002174 -0.000094 -0.000509 0.002563 0.001945 0.002773
0.147900 -0.002195 -0.000095 -0.000513 0.002580 0.001954 0.002782
0.150700 -0.002216 -0.000095 -0.000517 0.002598 0.001962 0.002791
0.153400 -0.002237 -0.000095 -0.000520 0.002614 0.001970 0.002800
0.156200 -0.002257 -0.000096 -0.000524 0.002631 0.001978 0.002809
0.158900 -0.002276 -0.000096 -0.000527 0.002647 0.001986 0.002817
0.161600 -0.002295 -0.000096 -0.000530 0.002663 0.001994 0.002826
0.164400 -0.002314 -0.000097 -0.000533 0.002680 0.002002 0.002835
0.167100 -0.002331 -0.000097 -0.000536 0.002695 0.002010 0.002843
0.169900 -0.002349 -0.000097 -0.000538 0.002712 0.002018 0.002852
0.172600 -0.002366 -0.000097 -0.000540 0.002727 0.002025 0.002860
0.175300 -0.002383 -0.000097 -0.000542 0.002742 0.002033 0.002869
0.178100 -0.002399 -0.000097 -0.000544 0.002757 0.002041 0.002878
0.180800 -0.002415 -0.000097 -0.000546 0.002772 0.002048 0.002886
0.183600 -0.002430 -0.000098 -0.000548 0.002787 0.002056 0.002894
0.186300 -0.002445 -0.000098 -0.000549 0.002802 0.002063 0.002903
0.189000 -0.002459 -0.000098 -0.000551 0.002816 0.002071 0.002911
0.191800 -0.002474 -0.000098 -0.000552 0.002831 0.002078 0.002919
0.194500 -0.002487 -0.000098 -0.000553 0.002845 0.002086 0.002927
0.197300 -0.002501 -0.000098 -0.000554 0.002859 0.002093 0.002936
0.200000 -0.002514 -0.000098 -0.000554 0.002872 0.002100 0.002944
0.202700 -0.002526 -0.000098 -0.000555 0.002886 0.002107 0.002951
0.205500 -0.002539 -0.000098 -0.000555 0.002900 0.002115 0.002960
0.208200 -0.002551 -0.000098 -0.000556 0.002913 0.002122 0.002967
0.211000 -0.002563 -0.000098 -0.000556 0.002926 0.002129 0.002976
0.213700 -0.002574 -0.000098 -0.000556 0.002939 0.002136 0.002983
0.216400 -0.002585 -0.000098 -0.000555 0.002951 0.002143 0.002991
0.219200 -0.002596 -0.000098 -0.000555 0.002964 0.002150 0.002999
0.221900 -0.002606 -0.000098 -0.000555 0.002976 0.002157 0.003006
0.224700 -0.002616 -0.000098 -0.000554 0.002989 0.002164 0.003014
0.227400 -0.002626 -0.000098 -0.000553 0.003001 0.002171 0.003022
0.230100 -0.002635 -0.000098 -0.000552 0.003013 0.002178 0.003029
0.232900 -0.002645 -0.000098 -0.000551 0.003025 0.002185 0.003037
0.235600 -0.002653 -0.000098 -0.000550 0.003036 0.002192 0.003044
0.238400 -0.002662 -0.000098 -0.000549 0.003048 0.002199 0.003052
0.241100 -0.002671 -0.000098 -0.000548 0.003059 0.002205 0.003059
0.243800 -0.002679 -0.000097 -0.000546 0.003070 0.002212 0.003066
0.246600 -0.002687 -0.000097 -0.000545 0.003081 0.002219 0.003074
0.249300 -0.002694 -0.000097 -0.000543 0.003092 0.002226 0.003081
0.252100 -0.002702 -0.000097 -0.000541 0.003103 0.002232 0.003088
0.254800 -0.002709 -0.000097 -0.000539 0.003114 0.002239 0.003095
0.257500 -0.002716 -0.000097 -0.000537 0.003124 0.002246 0.003102
0.260300 -0.002723 -0.000097 -0.000535 0.003134 0.002252 0.003109
0.263000 -0.002729 -0.000097 -0.000533 0.003144 0.002259 0.003116
0.265800 -0.002735 -0.000097 -0.000530 0.003155 0.002266 0.003123
0.268500 -0.002741 -0.000097 -0.000528 0.003164 0.002272 0.003130
0.271200 -0.002747 -0.000097 -0.000525 0.003174 0.002279 0.003136
0.274000 -0.002753 -0.000097 -0.000522 0.003184 0.002285 0.003143
0.276700 -0.002758 -0.000097 -0.000520 0.003193 0.002292 0.003150
0.279500 -0.002764 -0.000097 -0.000517 0.003203 0.002298 0.003157
0.282200 -0.002769 -0.000097 -0.000514 0.003212 0.002305 0.003163
0.284900 -0.002774 -0.000097 -0.000511 0.003221 0.002311 0.003170
0.287700 -0.002779 -0.000097 -0.000507 0.003230 0.002318 0.003176
0.290400 -0.002783 -0.000097 -0.000504 0.003238 0.002324 0.003183
0.293200 -0.002788 -0.000097 -0.000501 0.003247 0.002331 0.003189
0.295900 -0.002792 -0.000098 -0.000497 0.003256 0.002337 0.003196
0.298600 -0.002796 -0.000098 -0.000494 0.003264 0.002343 0.003202
0.301400 -0.002800 -0.000098 -0.000490 0.003273 0.002350 0.003208
0.304100 -0.002804 -0.000098 -0.000486 0.003281 0.002356 0.003215
0.306900 -0.002808 -0.000098 -0.000482 0.003289 0.002363 0.003221
0.309600 -0.002811 -0.000098 -0.000478 0.003297 0.002369 0.003227
0.312300 -0.002814 -0.000098 -0.000474 0.003304 0.002375 0.003233
0.315100 -0.002818 -0.000098 -0.000470 0.003312 0.002382 0.003239
0.317800 -0.002821 -0.000098 -0.000466 0.003320 0.002388 0.003245
0.320600 -0.002824 -0.000098 -0.000462 0.003327 0.002394 0.003252
0.323300 -0.002827 -0.000099 -0.000458 0.003334 0.002401 0.003258
0.326000 -0.002829 -0.000099 -0.000453 0.003342 0.002407 0.003263
0.328800 -0.002832 -0.000099 -0.000449 0.003349 0.002413 0.003269
0.331500 -0.002835 -0.000099 -0.000444 0.003356 0.002419 0.003275
0.334300 -0.002837 -0.000099 -0.000439 0.003363 0.002426 0.003281
0.337000 -0.002839 -0.000100 -0.000435 0.003369 0.002432 0.003287
0.339700 -0.002841 -0.000100 -0.000430 0.003376 0.002438 0.003293
0.342500 -0.002843 -0.000100 -0.000425 0.003383 0.002445 0.003299
0.345200 -0.002845 -0.000100 -0.000420 0.003389 0.002451 0.003304
0.347900 -0.002847 -0.000101 -0.000415 0.003395 0.002457 0.003310
0.350700 -0.002849 -0.000101 -0.000410 0.003402 0.002463 0.003316
0.353400 -0.002851 -0.000101 -0.000405 0.003408 0.002469 0.003321
0.356200 -0.002852 -0.000101 -0.000400 0.003414 0.002475 0.003327
0.358900 -0.002854 -0.000102 -0.000395 0.003420 0.002482 0.003332
0.361600 -0.002855 -0.000102 -0.000390 0.003425 0.002488 0.003338
0.364400 -0.002857 -0.000102 -0.000384 0.003431 0.002494 0.003343
0.367100 -0.002858 -0.000103 -0.000379 0.003437 0.002500 0.003349
0.369900 -0.002859 -0.000103 -0.000373 0.003442 0.002506 0.003354
0.372600 -0.002860 -0.000103 -0.000368 0.003448 0.002512 0.003360
0.375300 -0.002861 -0.000104 -0.000362 0.003453 0.002518 0.003365
0.378100 -0.002862 -0.000104 -0.000357 0.003458 0.002524 0.003370
0.380800 -0.002863 -0.000105 -0.000351 0.003463 0.002530 0.003376
0.383600 -0.002864 -0.000105 -0.000345 0.003468 0.002537 0.003381
0.386300 -0.002864 -0.000105 -0.000339 0.003473 0.002543 0.003386
0.389000 -0.002865 -0.000106 -0.000334 0.003478 0.002549 0.003391
0.391800 -0.002866 -0.000106 -0.000328 0.003483 0.002555 0.003397
0.394500 -0.002866 -0.000107 -0.000322 0.003487 0.002561 0.003402
0.397300 -0.002867 -0.000107 -0.000316 0.003492 0.002567 0.003407
0.400000 -0.002867 -0.000108 -0.000310 0.003497 0.002573 0.003412
0.402700 -0.002867 -0.000108 -0.000304 0.003501 0.002579 0.003417
0.405500 -0.002868 -0.000109 -0.000297 0.003505 0.002585 0.003422
0.408200 -0.002868 -0.000110 -0.000291 0.003509 0.002591 0.003427
0.411000 -0.002868 -0.000110 -0.000285 0.003514 0.002597 0.003433
0.413700 -0.002868 -0.000111 -0.000279 0.003518 0.002603 0.003438
0.416400 -0.002869 -0.000111 -0.000273 0.003522 0.002609 0.003443
0.419200 -0.002869 -0.000112 -0.000266 0.003526 0.002615 0.003448
0.421900 -0.002869 -0.000113 -0.000260 0.003529 0.002621 0.003453
0.424700 -0.002869 -0.000113 -0.000253 0.003533 0.002627 0.003458
0.427400 -0.002869 -0.000114 -0.000247 0.003537 0.002632 0.003462
0.430100 -0.002869 -0.000115 -0.000240 0.003540 0.002638 0.003467
0.432900 -0.002868 -0.000115 -0.000234 0.003544 0.002644 0.003472
0.435600 -0.002868 -0.000116 -0.000227 0.003547 0.002650 0.003477
0.438400 -0.002868 -0.000117 -0.000221 0.003551 0.002656 0.003482
0.441100 -0.002868 -0.000117 -0.000214 0.003554 0.002662 0.003487
0.443800 -0.002868 -0.000118 -0.000207 0.003557 0.002668 0.003492
0.446600 -0.002867 -0.000119 -0.000201 0.003560 0.002674 0.003496
0.449300 -0.002867 -0.000120 -0.000194 0.003563 0.002680 0.003501
0.452100 -0.002867 -0.000120 -0.000187 0.003566 0.002686 0.003506
0.454800 -0.002866 -0.000121 -0.000180 0.003569 0.002691 0.003511
0.457500 -0.002866 -0.000122 -0.000174 0.003572 0.002697 0.003515
0.460300 -0.002865 -0.000123 -0.000167 0.003575 0.002703 0.003520
0.463000 -0.002865 -0.000124 -0.000160 0.003577 0.002709 0.003525
0.465800 -0.002865 -0.000125 -0.000153 0.003580 0.002715 0.003530
0.468500 -0.002864 -0.000126 -0.000146 0.003583 0.002720 0.003534
0.471200 -0.002864 -0.000126 -0.000139 0.003585 0.002726 0.003539
0.474000 -0.002863 -0.000127 -0.000132 0.003588 0.002732 0.003544
0.476700 -0.002862 -0.000128 -0.000125 0.003590 0.002738 0.003548
0.479500 -0.002862 -0.000129 -0.000118 0.003592 0.002744 0.003553
0.482200 -0.002861 -0.000130 -0.000111 0.003595 0.002749 0.003558
0.484900 -0.002861 -0.000131 -0.000104 0.003597 0.002755 0.003562
0.487700 -0.002860 -0.000132 -0.000097 0.003599 0.002761 0.003567
0.490400 -0.002859 -0.000133 -0.000090 0.003601 0.002767 0.003571
0.493200 -0.002859 -0.000134 -0.000082 0.003603 0.002772 0.003576
0.495900 -0.002858 -0.000135 -0.000075 0.003605 0.002778 0.003581
0.498600 -0.002857 -0.000136 -0.000068 0.003607 0.002784 0.003585
0.501400 -0.002857 -0.000137 -0.000061 0.003609 0.002789 0.003590
0.504100 -0.002856 -0.000139 -0.000054 0.003610 0.002795 0.003594
0.506900 -0.002855 -0.000140 -0.000046 0.003612 0.002801 0.003599
0.509600 -0.002855 -0.000141 -0.000039 0.003614 0.002806 0.003603
0.512300 -0.002854 -0.000142 -0.000032 0.003615 0.002812 0.003608
0.517800 -0.002853 -0.000144 -0.000017 0.003618 0.002823 0.003617
0.520600 -0.002852 -0.000145 -0.000010 0.003620 0.002829 0.003622
0.523300 -0.002851 -0.000147 -0.000003 0.003621 0.002835 0.003626
0.526000 -0.002850 -0.000148 0.000004 0.003623 0.002840 0.003630
0.528800 -0.002850 -0.000149 0.000012 0.003624 0.002846 0.003635
0.531500 -0.002849 -0.000150 0.000019 0.003625 0.002851 0.003639
0.534300 -0.002848 -0.000152 0.000027 0.003626 0.002857 0.003644
0.537000 -0.002847 -0.000153 0.000034 0.003627 0.002863 0.003648
0.539700 -0.002847 -0.000154 0.000041 0.003628 0.002868 0.003653
0.542500 -0.002846 -0.000155 0.000049 0.003630 0.002874 0.003657
0.545200 -0.002845 -0.000157 0.000056 0.003630 0.002879 0.003662
0.547900 -0.002844 -0.000158 0.000063 0.003631 0.002885 0.003666
0.550700 -0.002844 -0.000159 0.000071 0.003632 0.002890 0.003671
0.553400 -0.002843 -0.000161 0.000078 0.003633 0.002896 0.003675
0.556200 -0.002842 -0.000162 0.000086 0.003634 0.002902 0.003680
0.558900 -0.002841 -0.000164 0.000093 0.003635 0.002907 0.003684
0.561600 -0.002841 -0.000165 0.000100 0.003635 0.002912 0.003689
0.564400 -0.002840 -0.000166 0.000108 0.003636 0.002918 0.003693
0.567100 -0.002839 -0.000168 0.000115 0.003637 0.002923 0.003697
0.569900 -0.002838 -0.000169 0.000123 0.003637 0.002929 0.003702
0.572600 -0.002838 -0.000171 0.000130 0.003638 0.002934 0.003706
0.575300 -0.002837 -0.000172 0.000138 0.003638 0.002940 0.003711
0.578100 -0.002836 -0.000174 0.000145 0.003639 0.002945 0.003715
0.580800 -0.002836 -0.000175 0.000153 0.003639 0.002951 0.003720
0.583600 -0.002835 -0.000177 0.000160 0.003640 0.002956 0.003724
0.586300 -0.002834 -0.000178 0.000167 0.003640 0.002962 0.003729
0.589000 -0.002833 -0.000180 0.000175 0.003640 0.002967 0.003733
0.591800 -0.002833 -0.000181 0.000182 0.003641 0.002972 0.003737
0.594500 -0.002832 -0.000183 0.000190 0.003641 0.002978 0.003742
0.597300 -0.002831 -0.000185 0.000197 0.003641 0.002983 0.003746
0.600000 -0.002831 -0.000186 0.000205 0.003641 0.002989 0.003751
0.602700 -0.002830 -0.000188 0.000212 0.003641 0.002994 0.003755
0.605500 -0.002830 -0.000190 0.000220 0.003642 0.002999 0.003760
0.608200 -0.002829 -0.000191 0.000227 0.003642 0.003005 0.003764
0.611000 -0.002828 -0.000193 0.000234 0.003642 0.003010 0.003769
0.613700 -0.002828 -0.000195 0.000242 0.003642 0.003015 0.003773
0.616400 -0.002827 -0.000196 0.000249 0.003642 0.003020 0.003777
0.619200 -0.002827 -0.000198 0.000257 0.003642 0.003026 0.003782
0.621900 -0.002826 -0.000200 0.000264 0.003642 0.003031 0.003786
0.624700 -0.002825 -0.000202 0.000271 0.003641 0.003037 0.003791
0.627400 -0.002825 -0.000203 0.000279 0.003641 0.003042 0.003795
0.630100 -0.002824 -0.000205 0.000286 0.003641 0.003047 0.003800
0.632900 -0.002824 -0.000207 0.000293 0.003641 0.003052 0.003804
0.635600 -0.002823 -0.000209 0.000301 0.003641 0.003057 0.003809
0.638400 -0.002823 -0.000210 0.000308 0.003640 0.003063 0.003813
0.641100 -0.002822 -0.000212 0.000315 0.003640 0.003068 0.003817
0.643800 -0.002822 -0.000214 0.000323 0.003640 0.003073 0.003822
0.646600 -0.002821 -0.000216 0.000330 0.003639 0.003078 0.003826
0.649300 -0.002821 -0.000218 0.000337 0.003639 0.003084 0.003831
0.652100 -0.002821 -0.000220 0.000345 0.003639 0.003089 0.003835
0.654800 -0.002820 -0.000222 0.000352 0.003638 0.003094 0.003840
0.657500 -0.002820 -0.000224 0.000359 0.003638 0.003099 0.003844
0.660300 -0.002819 -0.000226 0.000366 0.003637 0.003104 0.003849
0.663000 -0.002819 -0.000227 0.000374 0.003637 0.003109 0.003853
0.665800 -0.002819 -0.000229 0.000381 0.003636 0.003115 0.003858
0.668500 -0.002818 -0.000231 0.000388 0.003636 0.003120 0.003862
0.671200 -0.002818 -0.000233 0.000395 0.003635 0.003125 0.003867
0.674000 -0.002818 -0.000235 0.000402 0.003635 0.003130 0.003871
0.676700 -0.002818 -0.000237 0.000410 0.003634 0.003135 0.003876
0.679500 -0.002817 -0.000239 0.000417 0.003633 0.003140 0.003880
0.682200 -0.002817 -0.000241 0.000424 0.003633 0.003145 0.003885
0.684900 -0.002817 -0.000243 0.000431 0.003632 0.003150 0.003889
0.687700 -0.002817 -0.000246 0.000438 0.003631 0.003155 0.003894
0.690400 -0.002816 -0.000248 0.000445 0.003631 0.003160 0.003898
0.693200 -0.002816 -0.000250 0.000452 0.003630 0.003165 0.003903
0.695900 -0.002816 -0.000252 0.000459 0.003629 0.003170 0.003907
0.698600 -0.002816 -0.000254 0.000466 0.003628 0.003175 0.003912
0.701400 -0.002816 -0.000256 0.000473 0.003627 0.003180 0.003916
0.704100 -0.002816 -0.000258 0.000480 0.003627 0.003185 0.003921
0.706900 -0.002816 -0.000260 0.000487 0.003626 0.003190 0.003925
0.709600 -0.002815 -0.000262 0.000494 0.003625 0.003195 0.003930
0.712300 -0.002815 -0.000265 0.000501 0.003624 0.003200 0.003934
0.715100 -0.002815 -0.000267 0.000508 0.003623 0.003205 0.003939
0.717800 -0.002815 -0.000269 0.000515 0.003622 0.003210 0.003943
0.720600 -0.002815 -0.000271 0.000522 0.003621 0.003215 0.003948
0.723300 -0.002815 -0.000273 0.000529 0.003620 0.003220 0.003953
0.726000 -0.002815 -0.000276 0.000536 0.003620 0.003225 0.003957
0.728800 -0.002815 -0.000278 0.000543 0.003619 0.003230 0.003962
0.731500 -0.002815 -0.000280 0.000549 0.003618 0.003235 0.003966
0.734300 -0.002816 -0.000283 0.000556 0.003617 0.003240 0.003971
0.737000 -0.002816 -0.000285 0.000563 0.003616 0.003244 0.003975
0.739700 -0.002816 -0.000287 0.000569 0.003615 0.003249 0.003980
0.742500 -0.002816 -0.000289 0.000576 0.003614 0.003254 0.003985
0.745200 -0.002816 -0.000292 0.000583 0.003613 0.003259 0.003989
0.747900 -0.002816 -0.000294 0.000590 0.003611 0.003264 0.003994
0.750700 -0.002816 -0.000296 0.000596 0.003610 0.003269 0.003998
0.753400 -0.002817 -0.000299 0.000603 0.003609 0.003273 0.004003
0.756200 -0.002817 -0.000301 0.000610 0.003608 0.003278 0.004008
0.758900 -0.002817 -0.000304 0.000616 0.003607 0.003283 0.004012
0.761600 -0.002817 -0.000306 0.000622 0.003606 0.003288 0.004017
0.764400 -0.002818 -0.000308 0.000629 0.003605 0.003292 0.004021
0.767100 -0.002818 -0.000311 0.000636 0.003604 0.003297 0.004026
0.769900 -0.002818 -0.000313 0.000642 0.003603 0.003302 0.004031
0.772600 -0.002819 -0.000316 0.000649 0.003602 0.003307 0.004035
0.775300 -0.002819 -0.000318 0.000655 0.003600 0.003311 0.004040
0.778100 -0.002819 -0.000321 0.000661 0.003599 0.003316 0.004044
0.780800 -0.002820 -0.000323 0.000668 0.003598 0.003321 0.004049
0.783600 -0.002820 -0.000326 0.000674 0.003597 0.003326 0.004054
0.786300 -0.002821 -0.000328 0.000680 0.003596 0.003330 0.004058
0.789000 -0.002821 -0.000330 0.000687 0.003594 0.003335 0.004063
0.791800 -0.002822 -0.000333 0.000693 0.003593 0.003339 0.004068
0.794500 -0.002822 -0.000336 0.000699 0.003592 0.003344 0.004072
0.797300 -0.002823 -0.000338 0.000705 0.003591 0.003349 0.004077
0.800000 -0.002823 -0.000341 0.000712 0.003590 0.003353 0.004081
0.802700 -0.002824 -0.000343 0.000718 0.003588 0.003358 0.004086
0.805500 -0.002824 -0.000346 0.000724 0.003587 0.003363 0.004091
0.808200 -0.002825 -0.000348 0.000730 0.003586 0.003367 0.004095
0.811000 -0.002826 -0.000351 0.000736 0.003585 0.003372 0.004100
0.813700 -0.002826 -0.000354 0.000742 0.003583 0.003376 0.004105
0.816400 -0.002827 -0.000356 0.000748 0.003582 0.003381 0.004109
0.819200 -0.002828 -0.000359 0.000754 0.003581 0.003385 0.004114
0.821900 -0.002828 -0.000361 0.000760 0.003580 0.003390 0.004119
0.824700 -0.002829 -0.000364 0.000766 0.003578 0.003394 0.004123
0.827400 -0.002830 -0.000367 0.000772 0.003577 0.003399 0.004128
0.830100 -0.002830 -0.000369 0.000777 0.003576 0.003403 0.004133
