# time (yr) north(m) east(m) up(m) northsigma(m) eastsigma(m) upsigma(m)
0.000000 0.000000 0.000000 0.000000 0.000867 0.000977 0.001572
0.002700 -0.000003 -0.000003 0.000017 0.000867 0.000977 0.001572
0.005500 -0.000006 -0.000006 0.000036 0.000868 0.000979 0.001573
0.008200 -0.000009 -0.000010 0.000053 0.000869 0.000980 0.001574
0.011000 -0.000013 -0.000013 0.000071 0.000869 0.000983 0.001575
0.013700 -0.000016 -0.000017 0.000089 0.000871 0.000986 0.001577
0.016400 -0.000021 -0.000021 0.000107 0.000872 0.000989 0.001579
0.019200 -0.000026 -0.000025 0.000125 0.000874 0.000993 0.001582
0.021900 -0.000031 -0.000028 0.000143 0.000875 0.000998 0.001584
0.024700 -0.000037 -0.000032 0.000161 0.000877 0.001003 0.001588
0.027400 -0.000043 -0.000036 0.000179 0.000879 0.001008 0.001591
0.030100 -0.000049 -0.000040 0.000196 0.000881 0.001013 0.001595
0.032900 -0.000055 -0.000044 0.000214 0.000883 0.001019 0.001599
0.035600 -0.000062 -0.000047 0.000232 0.000885 0.001026 0.001603
0.038400 -0.000069 -0.000051 0.000250 0.000888 0.001032 0.001608
0.041100 -0.000076 -0.000055 0.000268 0.000890 0.001039 0.001612
0.043800 -0.000082 -0.000059 0.000285 0.000893 0.001046 0.001617
0.046600 -0.000090 -0.000063 0.000304 0.000895 0.001053 0.001623
0.049300 -0.000096 -0.000066 0.000321 0.000898 0.001060 0.001628
0.052100 -0.000103 -0.000070 0.000339 0.000901 0.001068 0.001634
0.054800 -0.000110 -0.000074 0.000356 0.000904 0.001076 0.001640
0.057500 -0.000117 -0.000078 0.000374 0.000907 0.001083 0.001646
0.060300 -0.000124 -0.000082 0.000392 0.000910 0.001091 0.001652
0.063000 -0.000130 -0.000085 0.000409 0.000913 0.001099 0.001658
0.065800 -0.000137 -0.000089 0.000427 0.000916 0.001107 0.001665
0.068500 -0.000143 -0.000093 0.000444 0.000920 0.001115 0.001671
0.071200 -0.000149 -0.000096 0.000460 0.000923 0.001123 0.001678
0.074000 -0.000156 -0.000100 0.000478 0.000926 0.001131 0.001685
0.076700 -0.000162 -0.000104 0.000495 0.000929 0.001139 0.001692
0.079500 -0.000168 -0.000107 0.000512 0.000933 0.001147 0.001699
0.082200 -0.000174 -0.000111 0.000529 0.000936 0.001155 0.001706
0.084900 -0.000179 -0.000115 0.000545 0.000940 0.001163 0.001713
0.087700 -0.000185 -0.000118 0.000562 0.000943 0.001171 0.001721
0.090400 -0.000191 -0.000122 0.000578 0.000946 0.001179 0.001728
0.093200 -0.000196 -0.000126 0.000595 0.000950 0.001187 0.001736
0.095900 -0.000201 -0.000129 0.000611 0.000953 0.001195 0.001743
0.098600 -0.000207 -0.000133 0.000627 0.000957 0.001203 0.001751
0.101400 -0.000212 -0.000136 0.000644 0.000960 0.001211 0.001759
0.104100 -0.000217 -0.000140 0.000659 0.000964 0.001218 0.001767
0.106900 -0.000222 -0.000144 0.000676 0.000967 0.001226 0.001775
0.109600 -0.000226 -0.000147 0.000691 0.000971 0.001233 0.001782
0.112300 -0.000231 -0.000151 0.000706 0.000974 0.001241 0.001790
0.115100 -0.000236 -0.000155 0.000722 0.000978 0.001248 0.001798
0.117800 -0.000240 -0.000158 0.000737 0.000981 0.001255 0.001806
0.120600 -0.000245 -0.000162 0.000753 0.000984 0.001263 0.001814
0.123300 -0.000249 -0.000165 0.000767 0.000988 0.001270 0.001822
0.126000 -0.000253 -0.000169 0.000782 0.000991 0.001277 0.001830
0.128800 -0.000257 -0.000173 0.000797 0.000994 0.001284 0.001839
0.131500 -0.000261 -0.000176 0.000812 0.000998 0.001290 0.001847
0.134300 -0.000265 -0.000180 0.000826 0.001001 0.001297 0.001855
0.137000 -0.000269 -0.000183 0.000841 0.001004 0.001304 0.001863
0.139700 -0.000273 -0.000187 0.000854 0.001007 0.001310 0.001871
0.142500 -0.000277 -0.000190 0.000869 0.001011 0.001317 0.001879
0.145200 -0.000281 -0.000194 0.000882 0.001014 0.001323 0.001887
0.147900 -0.000284 -0.000198 0.000896 0.001017 0.001329 0.001895
0.150700 -0.000288 -0.000201 0.000910 0.001020 0.001335 0.001903
0.153400 -0.000291 -0.000205 0.000923 0.001023 0.001341 0.001911
0.156200 -0.000295 -0.000208 0.000937 0.001026 0.001347 0.001920
0.158900 -0.000298 -0.000212 0.000950 0.001029 0.001353 0.001928
0.161600 -0.000301 -0.000215 0.000962 0.001032 0.001358 0.001935
0.164400 -0.000305 -0.000219 0.000975 0.001035 0.001364 0.001944
0.167100 -0.000308 -0.000223 0.000988 0.001038 0.001370 0.001952
0.169900 -0.000311 -0.000226 0.001001 0.001041 0.001375 0.001960
0.172600 -0.000314 -0.000230 0.001013 0.001044 0.001380 0.001967
0.175300 -0.000317 -0.000233 0.001025 0.001047 0.001385 0.001975
0.178100 -0.000320 -0.000237 0.001037 0.001050 0.001390 0.001983
0.180800 -0.000323 -0.000241 0.001049 0.001052 0.001395 0.001991
0.183600 -0.000326 -0.000244 0.001061 0.001055 0.001400 0.001999
0.186300 -0.000329 -0.000248 0.001072 0.001058 0.001405 0.002007
0.189000 -0.000331 -0.000252 0.001083 0.001061 0.001410 0.002014
0.191800 -0.000334 -0.000255 0.001095 0.001063 0.001414 0.002022
0.194500 -0.000337 -0.000259 0.001105 0.001066 0.001419 0.002030
0.200000 -0.000342 -0.000266 0.001127 0.001071 0.001427 0.002045
0.202700 -0.000345 -0.000270 0.001137 0.001074 0.001431 0.002052
0.205500 -0.000347 -0.000273 0.001148 0.001076 0.001435 0.002060
0.208200 -0.000350 -0.000277 0.001158 0.001079 0.001439 0.002067
0.211000 -0.000352 -0.000281 0.001168 0.001081 0.001443 0.002075
0.213700 -0.000355 -0.000284 0.001178 0.001084 0.001447 0.002082
0.216400 -0.000357 -0.000288 0.001188 0.001086 0.001450 0.002089
0.219200 -0.000359 -0.000291 0.001198 0.001088 0.001454 0.002096
0.221900 -0.000362 -0.000295 0.001207 0.001091 0.001457 0.002103
0.224700 -0.000364 -0.000299 0.001216 0.001093 0.001461 0.002111
0.227400 -0.000366 -0.000302 0.001225 0.001095 0.001464 0.002118
0.230100 -0.000368 -0.000306 0.001234 0.001097 0.001467 0.002124
0.232900 -0.000371 -0.000310 0.001243 0.001100 0.001470 0.002131
0.235600 -0.000373 -0.000313 0.001251 0.001102 0.001473 0.002138
0.238400 -0.000375 -0.000317 0.001260 0.001104 0.001476 0.002145
0.241100 -0.000377 -0.000320 0.001268 0.001106 0.001479 0.002152
0.243800 -0.000379 -0.000324 0.001276 0.001108 0.001482 0.002158
0.246600 -0.000381 -0.000328 0.001284 0.001110 0.001485 0.002165
0.249300 -0.000383 -0.000331 0.001292 0.001112 0.001487 0.002172
0.252100 -0.000385 -0.000335 0.001300 0.001114 0.001490 0.002178
0.254800 -0.000387 -0.000339 0.001307 0.001116 0.001492 0.002185
0.257500 -0.000389 -0.000342 0.001314 0.001118 0.001494 0.002191
0.260300 -0.000391 -0.000346 0.001321 0.001120 0.001497 0.002197
0.263000 -0.000393 -0.000350 0.001328 0.001122 0.001499 0.002203
0.265800 -0.000394 -0.000353 0.001335 0.001124 0.001501 0.002210
0.268500 -0.000396 -0.000357 0.001342 0.001126 0.001503 0.002216
0.271200 -0.000398 -0.000360 0.001348 0.001127 0.001505 0.002222
0.274000 -0.000400 -0.000364 0.001355 0.001129 0.001507 0.002228
0.276700 -0.000401 -0.000368 0.001361 0.001131 0.001508 0.002233
0.279500 -0.000403 -0.000372 0.001367 0.001133 0.001510 0.002239
0.282200 -0.000405 -0.000375 0.001373 0.001135 0.001512 0.002245
0.284900 -0.000407 -0.000379 0.001378 0.001136 0.001513 0.002251
0.287700 -0.000408 -0.000382 0.001384 0.001138 0.001515 0.002256
0.290400 -0.000410 -0.000386 0.001389 0.001140 0.001516 0.002262
0.293200 -0.000411 -0.000390 0.001395 0.001141 0.001517 0.002267
0.295900 -0.000413 -0.000393 0.001400 0.001143 0.001519 0.002273
0.298600 -0.000415 -0.000397 0.001405 0.001144 0.001520 0.002278
0.301400 -0.000416 -0.000401 0.001410 0.001146 0.001521 0.002283
0.304100 -0.000418 -0.000404 0.001414 0.001147 0.001522 0.002288
0.306900 -0.000419 -0.000408 0.001419 0.001149 0.001523 0.002294
0.309600 -0.000421 -0.000412 0.001423 0.001150 0.001524 0.002299
0.312300 -0.000422 -0.000415 0.001427 0.001152 0.001525 0.002303
0.315100 -0.000424 -0.000419 0.001431 0.001153 0.001526 0.002308
0.317800 -0.000425 -0.000423 0.001435 0.001155 0.001526 0.002313
0.320600 -0.000427 -0.000426 0.001439 0.001156 0.001527 0.002318
0.323300 -0.000428 -0.000430 0.001443 0.001158 0.001528 0.002323
0.326000 -0.000429 -0.000434 0.001446 0.001159 0.001528 0.002327
0.328800 -0.000431 -0.000437 0.001449 0.001160 0.001529 0.002332
0.331500 -0.000432 -0.000441 0.001452 0.001162 0.001529 0.002336
0.334300 -0.000433 -0.000445 0.001455 0.001163 0.001530 0.002341
0.337000 -0.000435 -0.000448 0.001458 0.001164 0.001530 0.002345
0.339700 -0.000436 -0.000452 0.001461 0.001166 0.001530 0.002349
0.342500 -0.000437 -0.000456 0.001464 0.001167 0.001531 0.002354
0.345200 -0.000439 -0.000459 0.001466 0.001168 0.001531 0.002358
0.347900 -0.000440 -0.000463 0.001468 0.001170 0.001531 0.002362
0.350700 -0.000441 -0.000467 0.001470 0.001171 0.001531 0.002366
0.353400 -0.000442 -0.000470 0.001472 0.001172 0.001531 0.002369
0.356200 -0.000444 -0.000474 0.001474 0.001173 0.001531 0.002373
0.358900 -0.000445 -0.000478 0.001476 0.001174 0.001531 0.002377
0.361600 -0.000446 -0.000481 0.001478 0.001176 0.001531 0.002381
0.364400 -0.000447 -0.000485 0.001479 0.001177 0.001531 0.002384
0.367100 -0.000449 -0.000489 0.001480 0.001178 0.001531 0.002388
0.369900 -0.000450 -0.000492 0.001482 0.001179 0.001530 0.002391
0.372600 -0.000451 -0.000496 0.001483 0.001180 0.001530 0.002395
0.375300 -0.000452 -0.000500 0.001484 0.001181 0.001530 0.002398
0.378100 -0.000453 -0.000503 0.001484 0.001183 0.001529 0.002401
0.380800 -0.000454 -0.000507 0.001485 0.001184 0.001529 0.002404
0.383600 -0.000456 -0.000511 0.001486 0.001185 0.001529 0.002408
0.386300 -0.000457 -0.000514 0.001486 0.001186 0.001528 0.002411
0.389000 -0.000458 -0.000518 0.001486 0.001187 0.001528 0.002414
0.391800 -0.000459 -0.000522 0.001486 0.001188 0.001527 0.002417
0.394500 -0.000460 -0.000525 0.001486 0.001189 0.001526 0.002419
0.397300 -0.000461 -0.000529 0.001486 0.001190 0.001526 0.002422
0.400000 -0.000462 -0.000533 0.001486 0.001191 0.001525 0.002425
0.402700 -0.000463 -0.000536 0.001485 0.001192 0.001524 0.002428
0.405500 -0.000464 -0.000540 0.001485 0.001193 0.001524 0.002430
0.408200 -0.000465 -0.000543 0.001484 0.001194 0.001523 0.002433
0.411000 -0.000466 -0.000547 0.001484 0.001195 0.001522 0.002435
0.413700 -0.000467 -0.000551 0.001483 0.001196 0.001521 0.002437
0.416400 -0.000468 -0.000554 0.001482 0.001197 0.001520 0.002440
0.419200 -0.000469 -0.000558 0.001480 0.001198 0.001519 0.002442
0.421900 -0.000470 -0.000562 0.001479 0.001199 0.001518 0.002444
0.424700 -0.000472 -0.000565 0.001478 0.001200 0.001517 0.002446
0.427400 -0.000472 -0.000569 0.001476 0.001201 0.001516 0.002448
0.430100 -0.000473 -0.000573 0.001475 0.001202 0.001515 0.002450
0.432900 -0.000474 -0.000576 0.001473 0.001203 0.001514 0.002452
0.435600 -0.000475 -0.000580 0.001471 0.001204 0.001513 0.002454
0.438400 -0.000476 -0.000584 0.001469 0.001205 0.001512 0.002456
0.441100 -0.000477 -0.000587 0.001467 0.001206 0.001511 0.002458
0.443800 -0.000478 -0.000591 0.001465 0.001207 0.001510 0.002459
0.446600 -0.000479 -0.000595 0.001462 0.001208 0.001509 0.002461
0.449300 -0.000480 -0.000598 0.001460 0.001209 0.001508 0.002462
0.452100 -0.000481 -0.000602 0.001457 0.001210 0.001506 0.002464
0.454800 -0.000482 -0.000606 0.001455 0.001211 0.001505 0.002465
0.457500 -0.000483 -0.000609 0.001452 0.001212 0.001504 0.002467
0.460300 -0.000484 -0.000613 0.001449 0.001212 0.001502 0.002468
0.463000 -0.000485 -0.000616 0.001446 0.001213 0.001501 0.002469
0.465800 -0.000486 -0.000620 0.001443 0.001214 0.001500 0.002470
0.468500 -0.000487 -0.000624 0.001440 0.001215 0.001499 0.002471
0.471200 -0.000488 -0.000627 0.001436 0.001216 0.001497 0.002472
0.474000 -0.000489 -0.000631 0.001433 0.001217 0.001496 0.002473
0.476700 -0.000490 -0.000635 0.001429 0.001218 0.001494 0.002474
0.479500 -0.000491 -0.000638 0.001426 0.001219 0.001493 0.002475
0.482200 -0.000492 -0.000642 0.001422 0.001220 0.001491 0.002476
0.484900 -0.000492 -0.000646 0.001418 0.001221 0.001490 0.002477
0.487700 -0.000493 -0.000649 0.001414 0.001222 0.001489 0.002477
0.490400 -0.000494 -0.000653 0.001410 0.001223 0.001487 0.002478
0.493200 -0.000495 -0.000657 0.001406 0.001224 0.001486 0.002479
0.495900 -0.000496 -0.000660 0.001402 0.001224 0.001484 0.002479
0.498600 -0.000497 -0.000664 0.001397 0.001225 0.001483 0.002480
0.501400 -0.000498 -0.000667 0.001393 0.001226 0.001481 0.002480
0.504100 -0.000499 -0.000671 0.001388 0.001227 0.001479 0.002481
0.506900 -0.000500 -0.000675 0.001383 0.001228 0.001478 0.002481
0.509600 -0.000501 -0.000678 0.001379 0.001229 0.001476 0.002481
0.512300 -0.000502 -0.000682 0.001374 0.001230 0.001475 0.002481
0.517800 -0.000503 -0.000689 0.001364 0.001232 0.001472 0.002482
0.520600 -0.000504 -0.000693 0.001359 0.001233 0.001470 0.002482
0.523300 -0.000505 -0.000696 0.001353 0.001234 0.001468 0.002482
0.526000 -0.000506 -0.000700 0.001348 0.001235 0.001467 0.002482
0.528800 -0.000507 -0.000704 0.001343 0.001236 0.001465 0.002482
0.531500 -0.000508 -0.000707 0.001337 0.001237 0.001463 0.002481
0.534300 -0.000509 -0.000711 0.001331 0.001238 0.001462 0.002481
0.537000 -0.000510 -0.000714 0.001326 0.001239 0.001460 0.002481
0.539700 -0.000510 -0.000718 0.001320 0.001240 0.001459 0.002481
0.542500 -0.000511 -0.000722 0.001314 0.001241 0.001457 0.002480
0.545200 -0.000512 -0.000725 0.001308 0.001241 0.001455 0.002480
0.547900 -0.000513 -0.000729 0.001302 0.001242 0.001454 0.002480
0.550700 -0.000514 -0.000732 0.001296 0.001243 0.001452 0.002479
0.553400 -0.000515 -0.000736 0.001290 0.001244 0.001450 0.002479
0.556200 -0.000516 -0.000740 0.001283 0.001245 0.001448 0.002478
0.558900 -0.000517 -0.000743 0.001277 0.001246 0.001447 0.002477
0.561600 -0.000518 -0.000747 0.001271 0.001247 0.001445 0.002477
0.564400 -0.000519 -0.000751 0.001264 0.001248 0.001443 0.002476
0.567100 -0.000519 -0.000754 0.001257 0.001249 0.001442 0.002475
0.569900 -0.000520 -0.000758 0.001250 0.001250 0.001440 0.002474
0.572600 -0.000521 -0.000761 0.001244 0.001251 0.001438 0.002474
0.575300 -0.000522 -0.000765 0.001237 0.001252 0.001437 0.002473
0.578100 -0.000523 -0.000769 0.001230 0.001253 0.001435 0.002472
0.580800 -0.000524 -0.000772 0.001223 0.001254 0.001433 0.002471
0.583600 -0.000525 -0.000776 0.001215 0.001256 0.001432 0.002470
0.586300 -0.000526 -0.000779 0.001208 0.001257 0.001430 0.002469
0.589000 -0.000527 -0.000783 0.001201 0.001258 0.001428 0.002468
0.591800 -0.000528 -0.000786 0.001194 0.001259 0.001426 0.002467
0.594500 -0.000529 -0.000790 0.001186 0.001260 0.001425 0.002466
0.597300 -0.000529 -0.000794 0.001179 0.001261 0.001423 0.002464
0.600000 -0.000530 -0.000797 0.001171 0.001262 0.001421 0.002463
0.602700 -0.000531 -0.000801 0.001164 0.001263 0.001420 0.002462
0.605500 -0.000532 -0.000804 0.001156 0.001264 0.001418 0.002461
0.608200 -0.000533 -0.000808 0.001148 0.001265 0.001416 0.002459
0.611000 -0.000534 -0.000812 0.001140 0.001266 0.001415 0.002458
0.613700 -0.000535 -0.000815 0.001132 0.001267 0.001413 0.002456
0.616400 -0.000536 -0.000819 0.001124 0.001268 0.001411 0.002455
0.619200 -0.000537 -0.000822 0.001116 0.001269 0.001410 0.002453
0.621900 -0.000538 -0.000826 0.001108 0.001271 0.001408 0.002452
0.624700 -0.000539 -0.000829 0.001099 0.001272 0.001406 0.002450
0.627400 -0.000540 -0.000833 0.001091 0.001273 0.001405 0.002449
0.630100 -0.000541 -0.000837 0.001083 0.001274 0.001403 0.002447
0.632900 -0.000542 -0.000840 0.001074 0.001275 0.001402 0.002446
0.635600 -0.000543 -0.000844 0.001066 0.001276 0.001400 0.002444
0.638400 -0.000544 -0.000847 0.001057 0.001277 0.001398 0.002442
0.641100 -0.000545 -0.000851 0.001049 0.001279 0.001397 0.002440
0.643800 -0.000546 -0.000854 0.001040 0.001280 0.001395 0.002439
0.646600 -0.000547 -0.000858 0.001031 0.001281 0.001394 0.002437
0.649300 -0.000548 -0.000862 0.001022 0.001282 0.001392 0.002435
0.652100 -0.000549 -0.000865 0.001013 0.001283 0.001390 0.002433
0.654800 -0.000550 -0.000869 0.001004 0.001285 0.001389 0.002431
0.657500 -0.000551 -0.000872 0.000996 0.001286 0.001387 0.002430
0.660300 -0.000552 -0.000876 0.000986 0.001287 0.001386 0.002428
0.663000 -0.000553 -0.000879 0.000977 0.001288 0.001384 0.002426
0.665800 -0.000554 -0.000883 0.000968 0.001289 0.001383 0.002424
0.668500 -0.000555 -0.000886 0.000959 0.001291 0.001381 0.002422
0.671200 -0.000556 -0.000890 0.000950 0.001292 0.001380 0.002420
0.674000 -0.000557 -0.000894 0.000940 0.001293 0.001378 0.002418
0.676700 -0.000558 -0.000897 0.000931 0.001294 0.001377 0.002415
0.679500 -0.000559 -0.000901 0.000921 0.001296 0.001375 0.002413
0.682200 -0.000560 -0.000904 0.000912 0.001297 0.001374 0.002411
0.684900 -0.000561 -0.000908 0.000902 0.001298 0.001372 0.002409
0.687700 -0.000562 -0.000911 0.000892 0.001299 0.001371 0.002407
0.690400 -0.000563 -0.000915 0.000883 0.001301 0.001369 0.002405
0.693200 -0.000564 -0.000918 0.000873 0.001302 0.001368 0.002402
0.695900 -0.000565 -0.000922 0.000863 0.001303 0.001367 0.002400
0.698600 -0.000566 -0.000925 0.000853 0.001305 0.001365 0.002398
0.701400 -0.000567 -0.000929 0.000843 0.001306 0.001364 0.002396
0.704100 -0.000568 -0.000933 0.000833 0.001307 0.001362 0.002393
0.706900 -0.000569 -0.000936 0.000823 0.001309 0.001361 0.002391
0.709600 -0.000570 -0.000940 0.000813 0.001310 0.001360 0.002389
0.712300 -0.000572 -0.000943 0.000803 0.001311 0.001358 0.002386
0.715100 -0.000573 -0.000947 0.000793 0.001313 0.001357 0.002384
0.717800 -0.000574 -0.000950 0.000783 0.001314 0.001356 0.002382
0.720600 -0.000575 -0.000954 0.000772 0.001315 0.001354 0.002379
0.723300 -0.000576 -0.000957 0.000762 0.001317 0.001353 0.002377
0.726000 -0.000577 -0.000961 0.000752 0.001318 0.001352 0.002374
0.728800 -0.000578 -0.000964 0.000741 0.001320 0.001351 0.002372
0.731500 -0.000579 -0.000968 0.000731 0.001321 0.001349 0.002370
0.734300 -0.000581 -0.000972 0.000720 0.001322 0.001348 0.002367
0.737000 -0.000582 -0.000975 0.000710 0.001324 0.001347 0.002365
0.739700 -0.000583 -0.000978 0.000699 0.001325 0.001346 0.002362
0.742500 -0.000584 -0.000982 0.000689 0.001327 0.001344 0.002360
0.745200 -0.000585 -0.000986 0.000678 0.001328 0.001343 0.002357
0.747900 -0.000586 -0.000989 0.000668 0.001329 0.001342 0.002355
0.750700 -0.000587 -0.000993 0.000657 0.001331 0.001341 0.002352
0.753400 -0.000589 -0.000996 0.000646 0.001332 0.001340 0.002349
0.756200 -0.000590 -0.001000 0.000635 0.001334 0.001339 0.002347
0.758900 -0.000591 -0.001003 0.000624 0.001335 0.001338 0.002344
0.761600 -0.000592 -0.001007 0.000613 0.001337 0.001337 0.002342
0.764400 -0.000593 -0.001010 0.000602 0.001338 0.001335 0.002339
0.767100 -0.000595 -0.001014 0.000591 0.001340 0.001334 0.002336
0.769900 -0.000596 -0.001017 0.000580 0.001341 0.001333 0.002334
0.772600 -0.000597 -0.001021 0.000569 0.001343 0.001332 0.002331
0.775300 -0.000598 -0.001024 0.000558 0.001344 0.001331 0.002329
0.778100 -0.000600 -0.001028 0.000547 0.001346 0.001330 0.002326
0.780800 -0.000601 -0.001031 0.000536 0.001347 0.001329 0.002323
0.783600 -0.000602 -0.001035 0.000524 0.001349 0.001328 0.002321
0.786300 -0.000603 -0.001038 0.000513 0.001350 0.001327 0.002318
0.789000 -0.000605 -0.001042 0.000502 0.001352 0.001326 0.002315
0.791800 -0.000606 -0.001045 0.000491 0.001353 0.001325 0.002313
0.794500 -0.000607 -0.001049 0.000479 0.001355 0.001324 0.002310
0.797300 -0.000609 -0.001052 0.000468 0.001357 0.001323 0.002307
0.800000 -0.000610 -0.001056 0.000456 0.001358 0.001323 0.002305
0.802700 -0.000611 -0.001059 0.000445 0.001360 0.001322 0.002302
0.805500 -0.000612 -0.001063 0.000433 0.001361 0.001321 0.002299
0.808200 -0.000614 -0.001066 0.000422 0.001363 0.001320 0.002297
0.811000 -0.000615 -0.001070 0.000410 0.001364 0.001319 0.002294
0.813700 -0.000616 -0.001073 0.000399 0.001366 0.001318 0.002291
0.816400 -0.000618 -0.001077 0.000387 0.001368 0.001317 0.002289
0.819200 -0.000619 -0.001080 0.000375 0.001369 0.001317 0.002286
0.821900 -0.000620 -0.001084 0.000364 0.001371 0.001316 0.002283
0.824700 -0.000622 -0.001087 0.000352 0.001373 0.001315 0.002280
0.827400 -0.000623 -0.001091 0.000340 0.001374 0.001314 0.002278
0.830100 -0.000624 -0.001094 0.000329 0.001376 0.001314 0.002275
0.832900 -0.000626 -0.001098 0.000317 0.001377 0.001313 0.002272
0.835600 -0.000627 -0.001101 0.000305 0.001379 0.001312 0.002270
0.838400 -0.000629 -0.001105 0.000293 0.001381 0.001311 0.002267
0.841100 -0.000630 -0.001108 0.000281 0.001382 0.001311 0.002264
