# time (yr) north(m) east(m) up(m) northsigma(m) eastsigma(m) upsigma(m)
0.000000 0.000000 0.000000 0.000000 0.002917 0.001552 0.001628
0.002700 -0.000101 0.000019 0.000001 0.002922 0.001553 0.001628
0.005500 -0.000203 0.000037 0.000003 0.002937 0.001554 0.001628
0.008200 -0.000300 0.000053 0.000004 0.002959 0.001557 0.001628
0.011000 -0.000400 0.000069 0.000006 0.002986 0.001560 0.001629
0.013700 -0.000494 0.000084 0.000007 0.003017 0.001564 0.001629
0.016400 -0.000587 0.000098 0.000009 0.003050 0.001568 0.001629
0.019200 -0.000681 0.000112 0.000010 0.003087 0.001573 0.001630
0.021900 -0.000771 0.000125 0.000011 0.003123 0.001579 0.001630
0.024700 -0.000863 0.000138 0.000013 0.003161 0.001586 0.001631
0.027400 -0.000950 0.000151 0.000014 0.003198 0.001593 0.001632
0.030100 -0.001036 0.000162 0.000015 0.003234 0.001601 0.001633
0.032900 -0.001123 0.000175 0.000017 0.003272 0.001609 0.001634
0.035600 -0.001206 0.000186 0.000018 0.003307 0.001618 0.001635
0.038400 -0.001291 0.000197 0.000019 0.003343 0.001628 0.001636
0.041100 -0.001371 0.000208 0.000021 0.003376 0.001638 0.001637
0.043800 -0.001451 0.000219 0.000022 0.003408 0.001648 0.001638
0.046600 -0.001532 0.000230 0.000023 0.003441 0.001660 0.001640
0.049300 -0.001609 0.000241 0.000024 0.003471 0.001671 0.001641
0.052100 -0.001687 0.000251 0.000025 0.003501 0.001684 0.001642
0.054800 -0.001762 0.000262 0.000027 0.003529 0.001697 0.001644
0.057500 -0.001835 0.000272 0.000028 0.003556 0.001710 0.001645
0.060300 -0.001911 0.000282 0.000029 0.003582 0.001724 0.001647
0.063000 -0.001982 0.000292 0.000030 0.003607 0.001738 0.001649
0.065800 -0.002055 0.000302 0.000031 0.003632 0.001753 0.001651
0.068500 -0.002124 0.000312 0.000032 0.003654 0.001768 0.001653
0.071200 -0.002192 0.000322 0.000033 0.003676 0.001783 0.001654
0.074000 -0.002262 0.000332 0.000034 0.003698 0.001800 0.001656
0.076700 -0.002329 0.000341 0.000035 0.003718 0.001816 0.001659
0.079500 -0.002397 0.000351 0.000037 0.003738 0.001833 0.001661
0.082200 -0.002461 0.000361 0.000038 0.003756 0.001850 0.001663
0.084900 -0.002525 0.000370 0.000038 0.003774 0.001868 0.001665
0.087700 -0.002590 0.000380 0.000039 0.003792 0.001886 0.001668
0.090400 -0.002652 0.000389 0.000040 0.003808 0.001904 0.001670
0.093200 -0.002715 0.000399 0.000041 0.003825 0.001923 0.001672
0.095900 -0.002775 0.000408 0.000042 0.003840 0.001942 0.001675
0.098600 -0.002834 0.000418 0.000043 0.003855 0.001961 0.001677
0.101400 -0.002895 0.000427 0.000044 0.003869 0.001981 0.001680
0.104100 -0.002953 0.000436 0.000045 0.003883 0.002001 0.001683
0.106900 -0.003012 0.000446 0.000046 0.003897 0.002022 0.001686
0.109600 -0.003068 0.000455 0.000047 0.003909 0.002042 0.001688
0.112300 -0.003124 0.000464 0.000048 0.003922 0.002062 0.001691
0.115100 -0.003180 0.000473 0.000048 0.003934 0.002084 0.001694
0.117800 -0.003234 0.000482 0.000049 0.003946 0.002105 0.001697
0.120600 -0.003290 0.000491 0.000050 0.003958 0.002127 0.001700
0.123300 -0.003342 0.000500 0.000051 0.003969 0.002148 0.001703
0.126000 -0.003394 0.000509 0.000051 0.003980 0.002170 0.001706
0.128800 -0.003448 0.000518 0.000052 0.003991 0.002193 0.001710
0.131500 -0.003498 0.000527 0.000053 0.004001 0.002215 0.001713
0.134300 -0.003550 0.000536 0.000053 0.004011 0.002238 0.001716
0.137000 -0.003600 0.000544 0.000054 0.004021 0.002260 0.001719
0.139700 -0.003648 0.000553 0.000055 0.004031 0.002283 0.001723
0.142500 -0.003698 0.000562 0.000055 0.004040 0.002307 0.001726
0.145200 -0.003746 0.000570 0.000056 0.004050 0.002329 0.001730
0.147900 -0.003793 0.000579 0.000057 0.004059 0.002353 0.001733
0.150700 -0.003841 0.000588 0.000057 0.004068 0.002377 0.001737
0.153400 -0.003887 0.000596 0.000058 0.004077 0.002400 0.001740
0.156200 -0.003934 0.000605 0.000058 0.004086 0.002424 0.001744
0.158900 -0.003979 0.000613 0.000059 0.004094 0.002448 0.001748
0.161600 -0.004023 0.000622 0.000059 0.004103 0.002472 0.001751
0.164400 -0.004068 0.000630 0.000060 0.004111 0.002497 0.001755
0.167100 -0.004112 0.000639 0.000060 0.004119 0.002520 0.001759
0.169900 -0.004156 0.000647 0.000061 0.004128 0.002545 0.001763
0.172600 -0.004198 0.000656 0.000061 0.004136 0.002570 0.001767
0.175300 -0.004240 0.000664 0.000061 0.004144 0.002594 0.001771
0.178100 -0.004283 0.000672 0.000062 0.004152 0.002619 0.001775
0.180800 -0.004323 0.000680 0.000062 0.004160 0.002644 0.001779
0.183600 -0.004365 0.000689 0.000062 0.004168 0.002669 0.001783
0.186300 -0.004405 0.000697 0.000063 0.004176 0.002693 0.001787
0.189000 -0.004445 0.000705 0.000063 0.004183 0.002718 0.001791
0.191800 -0.004485 0.000713 0.000063 0.004191 0.002744 0.001795
0.194500 -0.004524 0.000721 0.000064 0.004199 0.002768 0.001799
0.197300 -0.004563 0.000729 0.000064 0.004207 0.002794 0.001804
0.200000 -0.004601 0.000737 0.000064 0.004214 0.002819 0.001808
0.202700 -0.004638 0.000745 0.000064 0.004222 0.002844 0.001812
0.205500 -0.004677 0.000753 0.000064 0.004230 0.002870 0.001817
0.208200 -0.004713 0.000761 0.000064 0.004237 0.002895 0.001821
0.211000 -0.004751 0.000769 0.000065 0.004245 0.002921 0.001825
0.213700 -0.004786 0.000777 0.000065 0.004253 0.002946 0.001830
0.216400 -0.004822 0.000785 0.000065 0.004260 0.002971 0.001834
0.219200 -0.004858 0.000793 0.000065 0.004268 0.002997 0.001839
0.221900 -0.004893 0.000801 0.000065 0.004275 0.003022 0.001843
0.224700 -0.004928 0.000809 0.000065 0.004283 0.003048 0.001848
0.227400 -0.004962 0.000816 0.000065 0.004290 0.003073 0.001852
0.230100 -0.004996 0.000824 0.000065 0.004298 0.003098 0.001857
0.232900 -0.005031 0.000832 0.000065 0.004306 0.003124 0.001861
0.235600 -0.005064 0.000839 0.000065 0.004313 0.003150 0.001866
0.238400 -0.005097 0.000847 0.000065 0.004321 0.003176 0.001870
0.241100 -0.005130 0.000855 0.000065 0.004328 0.003201 0.001875
0.243800 -0.005162 0.000862 0.000064 0.004336 0.003226 0.001880
0.246600 -0.005195 0.000870 0.000064 0.004343 0.003252 0.001884
0.249300 -0.005226 0.000878 0.000064 0.004351 0.003277 0.001889
0.252100 -0.005258 0.000885 0.000064 0.004359 0.003303 0.001894
0.254800 -0.005289 0.000893 0.000064 0.004366 0.003328 0.001899
0.257500 -0.005320 0.000900 0.000063 0.004373 0.003354 0.001903
0.260300 -0.005351 0.000908 0.000063 0.004381 0.003380 0.001908
0.263000 -0.005381 0.000915 0.000063 0.004389 0.003405 0.001913
0.265800 -0.005412 0.000923 0.000063 0.004397 0.003431 0.001918
0.268500 -0.005441 0.000930 0.000062 0.004404 0.003456 0.001923
0.271200 -0.005470 0.000937 0.000062 0.004412 0.003481 0.001927
0.274000 -0.005500 0.000945 0.000062 0.004419 0.003507 0.001932
0.276700 -0.005529 0.000952 0.000061 0.004427 0.003532 0.001937
0.279500 -0.005558 0.000960 0.000061 0.004435 0.003558 0.001942
0.282200 -0.005586 0.000967 0.000060 0.004442 0.003583 0.001947
0.284900 -0.005614 0.000974 0.000060 0.004450 0.003607 0.001952
0.287700 -0.005643 0.000982 0.000059 0.004458 0.003633 0.001957
0.290400 -0.005670 0.000989 0.000059 0.004466 0.003658 0.001962
0.293200 -0.005698 0.000996 0.000058 0.004473 0.003684 0.001967
0.295900 -0.005725 0.001003 0.000058 0.004481 0.003708 0.001972
0.298600 -0.005752 0.001010 0.000057 0.004489 0.003733 0.001976
0.301400 -0.005780 0.001018 0.000057 0.004497 0.003759 0.001981
0.304100 -0.005806 0.001025 0.000056 0.004504 0.003783 0.001986
0.306900 -0.005833 0.001032 0.000056 0.004512 0.003809 0.001991
0.309600 -0.005859 0.001039 0.000055 0.004520 0.003833 0.001996
0.312300 -0.005884 0.001046 0.000054 0.004528 0.003858 0.002001
0.315100 -0.005911 0.001053 0.000054 0.004536 0.003883 0.002006
0.317800 -0.005936 0.001060 0.000053 0.004544 0.003908 0.002011
0.320600 -0.005962 0.001068 0.000052 0.004552 0.003933 0.002016
0.323300 -0.005987 0.001075 0.000051 0.004559 0.003957 0.002021
0.326000 -0.006011 0.001081 0.000051 0.004567 0.003981 0.002026
0.328800 -0.006036 0.001089 0.000050 0.004575 0.004007 0.002031
0.331500 -0.006061 0.001096 0.000049 0.004583 0.004031 0.002036
0.334300 -0.006086 0.001103 0.000048 0.004591 0.004056 0.002042
0.337000 -0.006110 0.001110 0.000047 0.004599 0.004080 0.002046
0.339700 -0.006133 0.001116 0.000046 0.004607 0.004104 0.002051
0.342500 -0.006158 0.001124 0.000045 0.004615 0.004128 0.002057
0.345200 -0.006181 0.001130 0.000045 0.004623 0.004152 0.002062
0.347900 -0.006204 0.001137 0.000044 0.004630 0.004176 0.002067
0.350700 -0.006228 0.001144 0.000043 0.004639 0.004201 0.002072
0.353400 -0.006251 0.001151 0.000042 0.004646 0.004224 0.002077
0.356200 -0.006274 0.001158 0.000041 0.004655 0.004249 0.002082
0.358900 -0.006297 0.001165 0.000040 0.004662 0.004272 0.002087
0.361600 -0.006319 0.001172 0.000039 0.004670 0.004296 0.002092
0.364400 -0.006342 0.001179 0.000038 0.004679 0.004320 0.002097
0.367100 -0.006364 0.001185 0.000036 0.004686 0.004344 0.002102
0.369900 -0.006387 0.001192 0.000035 0.004695 0.004368 0.002107
0.372600 -0.006409 0.001199 0.000034 0.004702 0.004391 0.002112
0.375300 -0.006430 0.001206 0.000033 0.004710 0.004414 0.002117
0.378100 -0.006452 0.001212 0.000032 0.004719 0.004438 0.002122
0.380800 -0.006474 0.001219 0.000031 0.004727 0.004461 0.002127
0.383600 -0.006496 0.001226 0.000029 0.004735 0.004485 0.002132
0.386300 -0.006517 0.001233 0.000028 0.004743 0.004508 0.002137
0.389000 -0.006538 0.001239 0.000027 0.004751 0.004531 0.002142
0.391800 -0.006559 0.001246 0.000026 0.004759 0.004554 0.002147
0.394500 -0.006580 0.001253 0.000024 0.004767 0.004577 0.002152
0.397300 -0.006601 0.001259 0.000023 0.004775 0.004600 0.002157
0.400000 -0.006621 0.001266 0.000022 0.004783 0.004623 0.002162
0.402700 -0.006642 0.001273 0.000020 0.004791 0.004645 0.002167
0.405500 -0.006662 0.001279 0.000019 0.004799 0.004668 0.002172
0.408200 -0.006682 0.001286 0.000018 0.004807 0.004691 0.002177
0.411000 -0.006703 0.001293 0.000016 0.004815 0.004714 0.002182
0.413700 -0.006723 0.001299 0.000015 0.004823 0.004736 0.002187
0.416400 -0.006742 0.001306 0.000013 0.004831 0.004758 0.002192
0.419200 -0.006763 0.001312 0.000012 0.004839 0.004781 0.002197
0.421900 -0.006782 0.001319 0.000010 0.004847 0.004803 0.002202
0.424700 -0.006802 0.001326 0.000009 0.004856 0.004825 0.002207
0.427400 -0.006821 0.001332 0.000007 0.004863 0.004847 0.002211
0.430100 -0.006840 0.001339 0.000006 0.004871 0.004869 0.002216
0.432900 -0.006860 0.001345 0.000004 0.004880 0.004891 0.002221
0.435600 -0.006879 0.001352 0.000003 0.004888 0.004913 0.002226
0.438400 -0.006898 0.001358 0.000001 0.004896 0.004935 0.002231
0.441100 -0.006917 0.001365 -0.000001 0.004904 0.004956 0.002236
0.443800 -0.006935 0.001371 -0.000002 0.004912 0.004978 0.002241
0.446600 -0.006954 0.001378 -0.000004 0.004920 0.005000 0.002246
0.449300 -0.006973 0.001384 -0.000006 0.004928 0.005021 0.002250
0.452100 -0.006991 0.001391 -0.000008 0.004936 0.005043 0.002255
0.454800 -0.007010 0.001397 -0.000009 0.004944 0.005064 0.002260
0.457500 -0.007028 0.001403 -0.000011 0.004952 0.005085 0.002265
0.460300 -0.007046 0.001410 -0.000013 0.004960 0.005106 0.002270
0.463000 -0.007064 0.001416 -0.000015 0.004968 0.005127 0.002274
0.465800 -0.007082 0.001423 -0.000016 0.004976 0.005148 0.002279
0.468500 -0.007100 0.001429 -0.000018 0.004984 0.005169 0.002284
0.471200 -0.007118 0.001436 -0.000020 0.004992 0.005189 0.002289
0.474000 -0.007136 0.001442 -0.000022 0.005000 0.005211 0.002294
0.476700 -0.007153 0.001448 -0.000024 0.005008 0.005231 0.002298
0.479500 -0.007171 0.001455 -0.000026 0.005016 0.005252 0.002303
0.482200 -0.007188 0.001461 -0.000028 0.005024 0.005272 0.002308
0.484900 -0.007205 0.001467 -0.000029 0.005032 0.005292 0.002312
0.487700 -0.007223 0.001474 -0.000031 0.005040 0.005313 0.002317
0.490400 -0.007240 0.001480 -0.000033 0.005048 0.005333 0.002322
0.493200 -0.007257 0.001487 -0.000035 0.005056 0.005353 0.002326
0.495900 -0.007274 0.001493 -0.000037 0.005064 0.005373 0.002331
0.498600 -0.007291 0.001499 -0.000039 0.005072 0.005393 0.002336
0.501400 -0.007308 0.001506 -0.000041 0.005080 0.005413 0.002340
0.504100 -0.007325 0.001512 -0.000044 0.005087 0.005433 0.002345
0.506900 -0.007342 0.001518 -0.000046 0.005095 0.005453 0.002349
0.509600 -0.007358 0.001524 -0.000048 0.005103 0.005472 0.002354
0.512300 -0.007375 0.001531 -0.000050 0.005111 0.005491 0.002358
0.517800 -0.007408 0.001543 -0.000054 0.005127 0.005530 0.002368
0.520600 -0.007424 0.001550 -0.000056 0.005135 0.005550 0.002372
0.523300 -0.007440 0.001556 -0.000058 0.005143 0.005569 0.002377
0.526000 -0.007456 0.001562 -0.000061 0.005150 0.005588 0.002381
0.528800 -0.007473 0.001568 -0.000063 0.005158 0.005607 0.002386
0.531500 -0.007489 0.001574 -0.000065 0.005166 0.005626 0.002390
0.534300 -0.007505 0.001581 -0.000067 0.005174 0.005645 0.002395
0.537000 -0.007521 0.001587 -0.000070 0.005182 0.005664 0.002399
0.539700 -0.007536 0.001593 -0.000072 0.005189 0.005682 0.002403
0.542500 -0.007552 0.001599 -0.000074 0.005197 0.005701 0.002408
0.545200 -0.007568 0.001605 -0.000076 0.005205 0.005719 0.002412
0.547900 -0.007583 0.001611 -0.000079 0.005213 0.005738 0.002416
0.550700 -0.007599 0.001618 -0.000081 0.005221 0.005756 0.002421
0.553400 -0.007615 0.001624 -0.000083 0.005228 0.005774 0.002425
0.556200 -0.007631 0.001630 -0.000086 0.005236 0.005793 0.002430
0.558900 -0.007646 0.001636 -0.000088 0.005244 0.005811 0.002434
0.561600 -0.007661 0.001642 -0.000091 0.005251 0.005828 0.002438
0.564400 -0.007677 0.001649 -0.000093 0.005259 0.005847 0.002442
0.567100 -0.007692 0.001655 -0.000095 0.005267 0.005864 0.002447
0.569900 -0.007707 0.001661 -0.000098 0.005274 0.005883 0.002451
0.572600 -0.007722 0.001667 -0.000100 0.005282 0.005900 0.002455
0.578100 -0.007752 0.001679 -0.000105 0.005297 0.005935 0.002464
0.580800 -0.007767 0.001685 -0.000108 0.005305 0.005952 0.002468
0.583600 -0.007782 0.001691 -0.000110 0.005312 0.005970 0.002472
0.586300 -0.007797 0.001697 -0.000113 0.005320 0.005987 0.002476
0.589000 -0.007811 0.001703 -0.000116 0.005327 0.006004 0.002480
0.591800 -0.007827 0.001710 -0.000118 0.005335 0.006021 0.002484
0.594500 -0.007841 0.001716 -0.000121 0.005342 0.006038 0.002488
0.597300 -0.007856 0.001722 -0.000123 0.005350 0.006056 0.002493
0.600000 -0.007870 0.001728 -0.000126 0.005358 0.006072 0.002497
0.602700 -0.007885 0.001734 -0.000129 0.005365 0.006089 0.002501
0.605500 -0.007900 0.001740 -0.000131 0.005373 0.006106 0.002505
0.608200 -0.007914 0.001746 -0.000134 0.005380 0.006122 0.002509
0.611000 -0.007928 0.001752 -0.000137 0.005387 0.006139 0.002513
0.613700 -0.007943 0.001758 -0.000139 0.005395 0.006155 0.002517
0.616400 -0.007957 0.001764 -0.000142 0.005402 0.006171 0.002521
0.619200 -0.007971 0.001770 -0.000145 0.005410 0.006188 0.002525
0.621900 -0.007985 0.001776 -0.000147 0.005417 0.006204 0.002529
0.624700 -0.008000 0.001782 -0.000150 0.005424 0.006220 0.002533
0.627400 -0.008014 0.001788 -0.000153 0.005432 0.006236 0.002536
0.630100 -0.008028 0.001794 -0.000156 0.005439 0.006252 0.002540
0.632900 -0.008042 0.001800 -0.000158 0.005446 0.006268 0.002544
0.635600 -0.008056 0.001806 -0.000161 0.005454 0.006283 0.002548
0.638400 -0.008070 0.001812 -0.000164 0.005461 0.006299 0.002552
0.641100 -0.008084 0.001818 -0.000167 0.005468 0.006315 0.002556
0.643800 -0.008097 0.001824 -0.000170 0.005475 0.006330 0.002560
0.646600 -0.008111 0.001830 -0.000173 0.005483 0.006346 0.002563
0.649300 -0.008125 0.001836 -0.000175 0.005490 0.006361 0.002567
0.652100 -0.008139 0.001842 -0.000178 0.005497 0.006377 0.002571
0.654800 -0.008152 0.001848 -0.000181 0.005504 0.006391 0.002575
0.657500 -0.008166 0.001853 -0.000184 0.005511 0.006406 0.002578
0.660300 -0.008180 0.001859 -0.000187 0.005518 0.006422 0.002582
0.663000 -0.008193 0.001865 -0.000190 0.005525 0.006436 0.002586
0.665800 -0.008207 0.001871 -0.000193 0.005533 0.006452 0.002590
0.668500 -0.008220 0.001877 -0.000196 0.005540 0.006466 0.002593
0.671200 -0.008234 0.001883 -0.000199 0.005547 0.006481 0.002597
0.674000 -0.008247 0.001889 -0.000202 0.005554 0.006496 0.002600
0.676700 -0.008260 0.001895 -0.000205 0.005561 0.006510 0.002604
0.679500 -0.008274 0.001901 -0.000208 0.005568 0.006525 0.002608
0.682200 -0.008287 0.001907 -0.000211 0.005575 0.006539 0.002611
0.684900 -0.008300 0.001912 -0.000214 0.005582 0.006553 0.002615
0.687700 -0.008314 0.001918 -0.000217 0.005589 0.006568 0.002618
0.690400 -0.008327 0.001924 -0.000220 0.005596 0.006582 0.002622
0.693200 -0.008340 0.001930 -0.000223 0.005603 0.006596 0.002625
0.695900 -0.008353 0.001936 -0.000226 0.005610 0.006610 0.002629
0.698600 -0.008366 0.001942 -0.000229 0.005616 0.006624 0.002632
0.701400 -0.008379 0.001948 -0.000232 0.005623 0.006638 0.002636
0.704100 -0.008392 0.001953 -0.000235 0.005630 0.006651 0.002639
0.706900 -0.008405 0.001959 -0.000238 0.005637 0.006665 0.002643
0.709600 -0.008418 0.001965 -0.000241 0.005644 0.006679 0.002646
0.712300 -0.008431 0.001971 -0.000244 0.005651 0.006692 0.002650
0.715100 -0.008444 0.001977 -0.000247 0.005657 0.006706 0.002653
0.717800 -0.008457 0.001982 -0.000251 0.005664 0.006719 0.002656
0.720600 -0.008470 0.001988 -0.000254 0.005671 0.006733 0.002660
0.723300 -0.008482 0.001994 -0.000257 0.005678 0.006746 0.002663
0.726000 -0.008495 0.002000 -0.000260 0.005684 0.006759 0.002666
0.728800 -0.008508 0.002006 -0.000263 0.005691 0.006772 0.002670
0.731500 -0.008521 0.002011 -0.000266 0.005698 0.006785 0.002673
0.734300 -0.008534 0.002017 -0.000270 0.005704 0.006798 0.002676
0.737000 -0.008546 0.002023 -0.000273 0.005711 0.006811 0.002680
0.739700 -0.008558 0.002029 -0.000276 0.005717 0.006823 0.002683
0.742500 -0.008571 0.002035 -0.000279 0.005724 0.006836 0.002686
0.745200 -0.008584 0.002040 -0.000283 0.005731 0.006849 0.002689
0.747900 -0.008596 0.002046 -0.000286 0.005737 0.006861 0.002692
0.750700 -0.008609 0.002052 -0.000289 0.005744 0.006874 0.002696
0.753400 -0.008621 0.002057 -0.000292 0.005750 0.006886 0.002699
0.756200 -0.008634 0.002063 -0.000296 0.005757 0.006899 0.002702
0.758900 -0.008646 0.002069 -0.000299 0.005763 0.006911 0.002705
0.761600 -0.008658 0.002074 -0.000302 0.005769 0.006923 0.002708
0.764400 -0.008671 0.002080 -0.000305 0.005776 0.006935 0.002711
0.767100 -0.008683 0.002086 -0.000309 0.005782 0.006947 0.002714
0.769900 -0.008695 0.002092 -0.000312 0.005789 0.006959 0.002717
0.772600 -0.008708 0.002097 -0.000315 0.005795 0.006971 0.002720
0.775300 -0.008720 0.002103 -0.000319 0.005801 0.006983 0.002723
0.778100 -0.008732 0.002109 -0.000322 0.005808 0.006995 0.002727
0.780800 -0.008744 0.002114 -0.000325 0.005814 0.007006 0.002730
0.783600 -0.008757 0.002120 -0.000329 0.005820 0.007018 0.002733
0.786300 -0.008769 0.002126 -0.000332 0.005826 0.007030 0.002736
0.789000 -0.008780 0.002131 -0.000335 0.005833 0.007041 0.002738
0.791800 -0.008793 0.002137 -0.000339 0.005839 0.007053 0.002742
0.794500 -0.008805 0.002143 -0.000342 0.005845 0.007064 0.002744
0.797300 -0.008817 0.002148 -0.000346 0.005851 0.007075 0.002747
0.800000 -0.008829 0.002154 -0.000349 0.005857 0.007086 0.002750
0.802700 -0.008841 0.002159 -0.000352 0.005863 0.007097 0.002753
0.805500 -0.008853 0.002165 -0.000356 0.005870 0.007109 0.002756
0.808200 -0.008865 0.002171 -0.000359 0.005876 0.007120 0.002759
0.811000 -0.008877 0.002176 -0.000363 0.005882 0.007131 0.002762
0.813700 -0.008889 0.002182 -0.000366 0.005888 0.007141 0.002765
0.816400 -0.008900 0.002188 -0.000370 0.005894 0.007152 0.002767
0.819200 -0.008912 0.002193 -0.000373 0.005900 0.007163 0.002770
0.821900 -0.008924 0.002199 -0.000377 0.005906 0.007174 0.002773
0.824700 -0.008936 0.002204 -0.000380 0.005912 0.007184 0.002776
0.827400 -0.008948 0.002210 -0.000384 0.005918 0.007195 0.002779
0.830100 -0.008959 0.002215 -0.000387 0.005924 0.007205 0.002781
0.832900 -0.008971 0.002221 -0.000391 0.005930 0.007216 0.002784
0.835600 -0.008983 0.002227 -0.000394 0.005935 0.007226 0.002787
0.838400 -0.008995 0.002232 -0.000398 0.005941 0.007236 0.002790
0.841100 -0.009006 0.002238 -0.000401 0.005947 0.007247 0.002792
0.843800 -0.009018 0.002243 -0.000405 0.005953 0.007256 0.002795
0.846600 -0.009030 0.002249 -0.000408 0.005959 0.007267 0.002798
0.849300 -0.009041 0.002254 -0.000412 0.005965 0.007277 0.002800
