# time (yr) north(m) east(m) up(m) northsigma(m) eastsigma(m) upsigma(m)
0.000000 0.000000 0.000000 0.000000 0.001884 0.001464 0.000781
0.002700 -0.000094 -0.000010 0.000012 0.001888 0.001464 0.000781
0.005500 -0.000188 -0.000022 0.000024 0.001898 0.001465 0.000782
0.008200 -0.000277 -0.000033 0.000035 0.001914 0.001466 0.000782
0.011000 -0.000368 -0.000045 0.000047 0.001936 0.001469 0.000782
0.013700 -0.000455 -0.000056 0.000059 0.001960 0.001471 0.000782
0.016400 -0.000541 -0.000067 0.000070 0.001988 0.001474 0.000782
0.019200 -0.000629 -0.000078 0.000082 0.002018 0.001478 0.000783
0.021900 -0.000714 -0.000088 0.000093 0.002050 0.001482 0.000783
0.024700 -0.000801 -0.000098 0.000105 0.002084 0.001487 0.000783
0.027400 -0.000884 -0.000108 0.000117 0.002117 0.001491 0.000784
0.030100 -0.000966 -0.000117 0.000128 0.002151 0.001497 0.000784
0.032900 -0.001051 -0.000126 0.000140 0.002187 0.001502 0.000785
0.035600 -0.001132 -0.000135 0.000151 0.002222 0.001508 0.000785
0.038400 -0.001216 -0.000143 0.000163 0.002258 0.001514 0.000786
0.041100 -0.001296 -0.000151 0.000174 0.002293 0.001521 0.000786
0.043800 -0.001375 -0.000159 0.000186 0.002327 0.001527 0.000787
0.046600 -0.001456 -0.000166 0.000197 0.002363 0.001534 0.000788
0.049300 -0.001533 -0.000173 0.000209 0.002397 0.001541 0.000788
0.052100 -0.001613 -0.000181 0.000220 0.002432 0.001548 0.000789
0.054800 -0.001689 -0.000187 0.000232 0.002465 0.001555 0.000790
0.057500 -0.001764 -0.000194 0.000243 0.002498 0.001562 0.000791
0.060300 -0.001841 -0.000200 0.000255 0.002531 0.001569 0.000792
0.063000 -0.001914 -0.000206 0.000266 0.002563 0.001576 0.000793
0.065800 -0.001989 -0.000212 0.000278 0.002595 0.001583 0.000794
0.068500 -0.002061 -0.000217 0.000289 0.002626 0.001590 0.000795
0.071200 -0.002132 -0.000223 0.000300 0.002655 0.001598 0.000796
0.074000 -0.002204 -0.000228 0.000312 0.002686 0.001605 0.000797
0.076700 -0.002273 -0.000233 0.000323 0.002714 0.001612 0.000798
0.079500 -0.002344 -0.000238 0.000335 0.002743 0.001619 0.000799
0.082200 -0.002411 -0.000243 0.000346 0.002770 0.001626 0.000800
0.084900 -0.002478 -0.000248 0.000357 0.002797 0.001633 0.000802
0.087700 -0.002546 -0.000252 0.000369 0.002823 0.001640 0.000803
0.090400 -0.002611 -0.000257 0.000380 0.002848 0.001646 0.000804
0.093200 -0.002677 -0.000261 0.000392 0.002874 0.001653 0.000806
0.095900 -0.002740 -0.000265 0.000403 0.002897 0.001660 0.000807
0.098600 -0.002803 -0.000269 0.000414 0.002920 0.001666 0.000808
0.101400 -0.002866 -0.000273 0.000426 0.002943 0.001672 0.000810
0.104100 -0.002927 -0.000277 0.000437 0.002965 0.001678 0.000811
0.106900 -0.002989 -0.000281 0.000448 0.002986 0.001685 0.000813
0.109600 -0.003048 -0.000285 0.000460 0.003007 0.001691 0.000814
0.112300 -0.003107 -0.000288 0.000471 0.003026 0.001697 0.000816
0.115100 -0.003166 -0.000292 0.000482 0.003046 0.001702 0.000818
0.117800 -0.003223 -0.000295 0.000493 0.003064 0.001708 0.000819
0.120600 -0.003281 -0.000299 0.000505 0.003082 0.001714 0.000821
0.123300 -0.003337 -0.000302 0.000516 0.003099 0.001719 0.000823
0.126000 -0.003391 -0.000305 0.000527 0.003115 0.001724 0.000825
0.128800 -0.003447 -0.000308 0.000539 0.003131 0.001730 0.000827
0.131500 -0.003500 -0.000311 0.000550 0.003146 0.001735 0.000828
0.134300 -0.003555 -0.000314 0.000561 0.003161 0.001740 0.000830
0.137000 -0.003607 -0.000317 0.000572 0.003175 0.001745 0.000832
0.139700 -0.003658 -0.000320 0.000583 0.003189 0.001749 0.000834
0.142500 -0.003710 -0.000323 0.000595 0.003202 0.001754 0.000836
0.145200 -0.003760 -0.000326 0.000606 0.003214 0.001759 0.000838
0.147900 -0.003809 -0.000328 0.000617 0.003226 0.001763 0.000840
0.150700 -0.003860 -0.000331 0.000628 0.003238 0.001768 0.000842
0.153400 -0.003908 -0.000334 0.000639 0.003249 0.001772 0.000844
0.156200 -0.003957 -0.000336 0.000651 0.003259 0.001776 0.000847
0.158900 -0.004003 -0.000339 0.000662 0.003269 0.001780 0.000849
0.161600 -0.004050 -0.000341 0.000673 0.003279 0.001784 0.000851
0.164400 -0.004097 -0.000344 0.000684 0.003288 0.001788 0.000853
0.167100 -0.004142 -0.000346 0.000695 0.003297 0.001792 0.000855
0.169900 -0.004188 -0.000349 0.000706 0.003305 0.001796 0.000858
0.172600 -0.004232 -0.000351 0.000717 0.003313 0.001800 0.000860
0.175300 -0.004275 -0.000353 0.000728 0.003320 0.001803 0.000862
0.178100 -0.004320 -0.000356 0.000740 0.003327 0.001807 0.000865
0.180800 -0.004362 -0.000358 0.000750 0.003334 0.001810 0.000867
0.183600 -0.004406 -0.000360 0.000762 0.003340 0.001813 0.000869
0.186300 -0.004447 -0.000362 0.000773 0.003346 0.001817 0.000872
0.189000 -0.004488 -0.000365 0.000783 0.003352 0.001820 0.000874
0.191800 -0.004530 -0.000367 0.000795 0.003357 0.001823 0.000877
0.194500 -0.004570 -0.000369 0.000805 0.003362 0.001826 0.000879
0.197300 -0.004611 -0.000371 0.000816 0.003367 0.001829 0.000882
0.200000 -0.004650 -0.000373 0.000827 0.003371 0.001832 0.000884
0.202700 -0.004688 -0.000375 0.000838 0.003375 0.001835 0.000887
0.205500 -0.004728 -0.000377 0.000849 0.003379 0.001838 0.000889
0.208200 -0.004765 -0.000379 0.000860 0.003382 0.001840 0.000892
0.211000 -0.004804 -0.000381 0.000871 0.003385 0.001843 0.000895
0.213700 -0.004841 -0.000383 0.000881 0.003388 0.001846 0.000897
0.216400 -0.004877 -0.000385 0.000892 0.003391 0.001848 0.000900
0.219200 -0.004914 -0.000387 0.000903 0.003393 0.001851 0.000903
0.221900 -0.004950 -0.000389 0.000914 0.003396 0.001853 0.000905
0.224700 -0.004987 -0.000391 0.000925 0.003398 0.001856 0.000908
0.227400 -0.005021 -0.000393 0.000935 0.003399 0.001858 0.000911
0.230100 -0.005056 -0.000395 0.000946 0.003401 0.001860 0.000913
0.232900 -0.005091 -0.000397 0.000956 0.003402 0.001863 0.000916
0.235600 -0.005125 -0.000399 0.000967 0.003403 0.001865 0.000919
0.238400 -0.005160 -0.000401 0.000978 0.003404 0.001867 0.000922
0.241100 -0.005193 -0.000403 0.000988 0.003405 0.001869 0.000925
0.243800 -0.005225 -0.000405 0.000998 0.003406 0.001872 0.000927
0.246600 -0.005259 -0.000407 0.001009 0.003406 0.001874 0.000930
0.249300 -0.005291 -0.000408 0.001020 0.003406 0.001876 0.000933
0.252100 -0.005324 -0.000410 0.001030 0.003406 0.001878 0.000936
0.254800 -0.005355 -0.000412 0.001041 0.003406 0.001880 0.000939
0.265800 -0.005479 -0.000420 0.001082 0.003405 0.001887 0.000951
0.268500 -0.005509 -0.000421 0.001092 0.003404 0.001889 0.000954
0.271200 -0.005539 -0.000423 0.001102 0.003403 0.001891 0.000956
0.274000 -0.005569 -0.000425 0.001113 0.003402 0.001893 0.000959
0.276700 -0.005598 -0.000427 0.001123 0.003401 0.001895 0.000962
0.279500 -0.005628 -0.000429 0.001133 0.003400 0.001896 0.000965
0.282200 -0.005656 -0.000430 0.001143 0.003398 0.001898 0.000968
0.284900 -0.005684 -0.000432 0.001153 0.003397 0.001900 0.000971
0.287700 -0.005713 -0.000434 0.001163 0.003395 0.001901 0.000974
0.290400 -0.005741 -0.000436 0.001173 0.003394 0.001903 0.000977
0.293200 -0.005769 -0.000437 0.001184 0.003392 0.001905 0.000980
0.295900 -0.005796 -0.000439 0.001193 0.003390 0.001906 0.000983
0.298600 -0.005823 -0.000441 0.001203 0.003389 0.001908 0.000986
0.301400 -0.005851 -0.000443 0.001213 0.003387 0.001909 0.000989
0.304100 -0.005877 -0.000445 0.001223 0.003385 0.001911 0.000992
0.306900 -0.005904 -0.000446 0.001233 0.003382 0.001913 0.000996
0.309600 -0.005930 -0.000448 0.001243 0.003380 0.001914 0.000999
0.312300 -0.005956 -0.000450 0.001253 0.003378 0.001916 0.001002
0.315100 -0.005982 -0.000452 0.001262 0.003376 0.001917 0.001005
0.317800 -0.006007 -0.000453 0.001272 0.003373 0.001918 0.001008
0.320600 -0.006033 -0.000455 0.001282 0.003371 0.001920 0.001011
0.323300 -0.006058 -0.000457 0.001291 0.003368 0.001921 0.001014
0.326000 -0.006083 -0.000458 0.001301 0.003366 0.001923 0.001017
0.328800 -0.006108 -0.000460 0.001311 0.003363 0.001924 0.001020
0.331500 -0.006132 -0.000462 0.001320 0.003361 0.001926 0.001023
0.334300 -0.006157 -0.000464 0.001330 0.003358 0.001927 0.001026
0.337000 -0.006181 -0.000465 0.001339 0.003355 0.001928 0.001029
0.339700 -0.006204 -0.000467 0.001348 0.003353 0.001930 0.001032
0.342500 -0.006229 -0.000469 0.001358 0.003350 0.001931 0.001035
0.345200 -0.006252 -0.000471 0.001367 0.003347 0.001932 0.001038
0.347900 -0.006275 -0.000472 0.001376 0.003344 0.001934 0.001041
0.350700 -0.006298 -0.000474 0.001386 0.003341 0.001935 0.001045
0.353400 -0.006321 -0.000476 0.001395 0.003338 0.001936 0.001048
0.356200 -0.006344 -0.000478 0.001405 0.003335 0.001938 0.001051
0.358900 -0.006367 -0.000479 0.001414 0.003332 0.001939 0.001054
0.361600 -0.006389 -0.000481 0.001423 0.003329 0.001940 0.001057
0.364400 -0.006412 -0.000483 0.001432 0.003326 0.001942 0.001060
0.367100 -0.006433 -0.000484 0.001441 0.003323 0.001943 0.001063
0.369900 -0.006456 -0.000486 0.001450 0.003320 0.001944 0.001066
0.372600 -0.006477 -0.000488 0.001459 0.003317 0.001945 0.001069
0.375300 -0.006499 -0.000490 0.001468 0.003314 0.001947 0.001072
0.378100 -0.006520 -0.000491 0.001477 0.003311 0.001948 0.001075
0.380800 -0.006541 -0.000493 0.001486 0.003308 0.001949 0.001078
0.383600 -0.006563 -0.000495 0.001495 0.003305 0.001950 0.001081
0.386300 -0.006584 -0.000497 0.001503 0.003302 0.001951 0.001084
0.389000 -0.006604 -0.000498 0.001512 0.003298 0.001953 0.001087
0.391800 -0.006625 -0.000500 0.001521 0.003295 0.001954 0.001090
0.394500 -0.006646 -0.000502 0.001529 0.003292 0.001955 0.001093
0.397300 -0.006666 -0.000504 0.001538 0.003289 0.001956 0.001096
0.400000 -0.006686 -0.000505 0.001547 0.003286 0.001957 0.001099
0.402700 -0.006706 -0.000507 0.001555 0.003283 0.001959 0.001102
0.405500 -0.006727 -0.000509 0.001564 0.003279 0.001960 0.001105
0.408200 -0.006746 -0.000510 0.001572 0.003276 0.001961 0.001108
0.411000 -0.006766 -0.000512 0.001581 0.003273 0.001962 0.001111
0.413700 -0.006785 -0.000514 0.001589 0.003270 0.001963 0.001114
0.416400 -0.006805 -0.000516 0.001597 0.003267 0.001964 0.001117
0.419200 -0.006824 -0.000517 0.001606 0.003263 0.001966 0.001120
0.421900 -0.006843 -0.000519 0.001614 0.003260 0.001967 0.001123
0.424700 -0.006863 -0.000521 0.001622 0.003257 0.001968 0.001126
0.427400 -0.006881 -0.000522 0.001631 0.003254 0.001969 0.001129
0.430100 -0.006900 -0.000524 0.001639 0.003251 0.001970 0.001132
0.432900 -0.006919 -0.000526 0.001647 0.003247 0.001971 0.001135
0.435600 -0.006937 -0.000528 0.001655 0.003244 0.001972 0.001138
0.438400 -0.006956 -0.000529 0.001663 0.003241 0.001974 0.001141
0.441100 -0.006974 -0.000531 0.001671 0.003238 0.001975 0.001144
0.443800 -0.006992 -0.000533 0.001679 0.003235 0.001976 0.001147
0.446600 -0.007010 -0.000535 0.001687 0.003232 0.001977 0.001150
0.449300 -0.007028 -0.000536 0.001695 0.003228 0.001978 0.001153
0.452100 -0.007046 -0.000538 0.001703 0.003225 0.001979 0.001155
0.454800 -0.007064 -0.000540 0.001710 0.003222 0.001980 0.001158
0.457500 -0.007081 -0.000541 0.001718 0.003219 0.001981 0.001161
0.460300 -0.007099 -0.000543 0.001726 0.003216 0.001982 0.001164
0.463000 -0.007116 -0.000545 0.001733 0.003213 0.001983 0.001167
0.465800 -0.007134 -0.000547 0.001741 0.003210 0.001985 0.001170
0.468500 -0.007151 -0.000548 0.001749 0.003207 0.001986 0.001173
0.471200 -0.007168 -0.000550 0.001756 0.003204 0.001987 0.001175
0.474000 -0.007186 -0.000552 0.001764 0.003201 0.001988 0.001178
0.476700 -0.007202 -0.000554 0.001771 0.003198 0.001989 0.001181
0.479500 -0.007219 -0.000555 0.001779 0.003195 0.001990 0.001184
0.482200 -0.007236 -0.000557 0.001786 0.003192 0.001991 0.001186
0.484900 -0.007252 -0.000559 0.001793 0.003189 0.001992 0.001189
0.487700 -0.007269 -0.000560 0.001801 0.003186 0.001993 0.001192
0.490400 -0.007286 -0.000562 0.001808 0.003183 0.001994 0.001195
0.493200 -0.007302 -0.000564 0.001815 0.003180 0.001995 0.001197
0.495900 -0.007318 -0.000566 0.001822 0.003177 0.001996 0.001200
0.498600 -0.007334 -0.000567 0.001829 0.003174 0.001997 0.001203
0.501400 -0.007351 -0.000569 0.001837 0.003171 0.001998 0.001206
0.504100 -0.007367 -0.000571 0.001844 0.003168 0.001999 0.001208
0.506900 -0.007383 -0.000573 0.001851 0.003165 0.002001 0.001211
0.509600 -0.007399 -0.000574 0.001858 0.003163 0.002002 0.001214
0.512300 -0.007414 -0.000576 0.001864 0.003160 0.002003 0.001216
0.517800 -0.007446 -0.000579 0.001878 0.003154 0.002005 0.001221
0.520600 -0.007462 -0.000581 0.001885 0.003151 0.002006 0.001224
0.523300 -0.007477 -0.000583 0.001892 0.003149 0.002007 0.001227
0.526000 -0.007492 -0.000585 0.001899 0.003146 0.002008 0.001229
0.528800 -0.007508 -0.000586 0.001905 0.003143 0.002009 0.001232
0.531500 -0.007523 -0.000588 0.001912 0.003141 0.002010 0.001234
0.534300 -0.007538 -0.000590 0.001919 0.003138 0.002011 0.001237
0.537000 -0.007553 -0.000592 0.001925 0.003135 0.002012 0.001239
0.539700 -0.007568 -0.000593 0.001932 0.003133 0.002013 0.001242
0.542500 -0.007583 -0.000595 0.001938 0.003130 0.002014 0.001245
0.545200 -0.007598 -0.000597 0.001944 0.003127 0.002015 0.001247
0.547900 -0.007612 -0.000599 0.001951 0.003125 0.002016 0.001249
0.550700 -0.007628 -0.000600 0.001957 0.003122 0.002017 0.001252
0.553400 -0.007642 -0.000602 0.001964 0.003120 0.002018 0.001254
0.556200 -0.007657 -0.000604 0.001970 0.003117 0.002019 0.001257
0.558900 -0.007671 -0.000605 0.001976 0.003114 0.002020 0.001259
0.561600 -0.007686 -0.000607 0.001982 0.003112 0.002021 0.001262
0.564400 -0.007700 -0.000609 0.001988 0.003109 0.002022 0.001264
0.567100 -0.007714 -0.000611 0.001994 0.003107 0.002023 0.001266
0.569900 -0.007729 -0.000612 0.002001 0.003104 0.002024 0.001269
0.572600 -0.007743 -0.000614 0.002007 0.003102 0.002025 0.001271
0.575300 -0.007757 -0.000616 0.002013 0.003100 0.002026 0.001274
0.578100 -0.007771 -0.000618 0.002019 0.003097 0.002027 0.001276
0.580800 -0.007785 -0.000619 0.002024 0.003095 0.002028 0.001278
0.583600 -0.007800 -0.000621 0.002030 0.003092 0.002029 0.001281
0.586300 -0.007813 -0.000623 0.002036 0.003090 0.002030 0.001283
0.589000 -0.007827 -0.000625 0.002042 0.003088 0.002030 0.001285
0.591800 -0.007841 -0.000626 0.002048 0.003085 0.002031 0.001287
0.594500 -0.007855 -0.000628 0.002053 0.003083 0.002032 0.001290
0.597300 -0.007869 -0.000630 0.002059 0.003081 0.002033 0.001292
0.600000 -0.007882 -0.000632 0.002065 0.003078 0.002034 0.001294
0.602700 -0.007895 -0.000633 0.002070 0.003076 0.002035 0.001296
0.605500 -0.007909 -0.000635 0.002076 0.003074 0.002036 0.001299
0.608200 -0.007923 -0.000637 0.002081 0.003072 0.002037 0.001301
0.611000 -0.007936 -0.000638 0.002087 0.003069 0.002038 0.001303
0.613700 -0.007950 -0.000640 0.002092 0.003067 0.002039 0.001305
0.616400 -0.007963 -0.000642 0.002098 0.003065 0.002040 0.001307
0.619200 -0.007976 -0.000644 0.002103 0.003063 0.002041 0.001309
0.621900 -0.007989 -0.000645 0.002108 0.003061 0.002042 0.001311
0.624700 -0.008003 -0.000647 0.002114 0.003059 0.002043 0.001314
0.627400 -0.008016 -0.000649 0.002119 0.003057 0.002044 0.001316
0.630100 -0.008029 -0.000651 0.002124 0.003054 0.002045 0.001318
0.632900 -0.008042 -0.000652 0.002129 0.003052 0.002046 0.001320
0.635600 -0.008055 -0.000654 0.002134 0.003050 0.002046 0.001322
0.638400 -0.008068 -0.000656 0.002139 0.003048 0.002047 0.001324
0.641100 -0.008081 -0.000658 0.002144 0.003046 0.002048 0.001326
0.643800 -0.008093 -0.000659 0.002149 0.003044 0.002049 0.001328
0.646600 -0.008106 -0.000661 0.002154 0.003042 0.002050 0.001330
0.649300 -0.008119 -0.000663 0.002159 0.003040 0.002051 0.001332
0.652100 -0.008132 -0.000665 0.002164 0.003038 0.002052 0.001334
0.654800 -0.008144 -0.000666 0.002169 0.003036 0.002053 0.001336
0.657500 -0.008157 -0.000668 0.002174 0.003034 0.002054 0.001338
0.660300 -0.008170 -0.000670 0.002179 0.003032 0.002055 0.001340
0.663000 -0.008182 -0.000671 0.002183 0.003030 0.002055 0.001342
0.665800 -0.008195 -0.000673 0.002188 0.003028 0.002056 0.001344
0.668500 -0.008207 -0.000675 0.002193 0.003027 0.002057 0.001345
0.671200 -0.008219 -0.000677 0.002197 0.003025 0.002058 0.001347
0.674000 -0.008232 -0.000678 0.002202 0.003023 0.002059 0.001349
0.676700 -0.008244 -0.000680 0.002207 0.003021 0.002060 0.001351
0.679500 -0.008257 -0.000682 0.002211 0.003019 0.002061 0.001353
0.682200 -0.008269 -0.000684 0.002216 0.003017 0.002062 0.001355
0.684900 -0.008281 -0.000685 0.002220 0.003016 0.002062 0.001356
0.687700 -0.008293 -0.000687 0.002224 0.003014 0.002063 0.001358
0.690400 -0.008305 -0.000689 0.002229 0.003012 0.002064 0.001360
0.693200 -0.008318 -0.000691 0.002233 0.003010 0.002065 0.001362
0.695900 -0.008330 -0.000692 0.002237 0.003008 0.002066 0.001363
0.698600 -0.008341 -0.000694 0.002242 0.003007 0.002067 0.001365
0.701400 -0.008354 -0.000696 0.002246 0.003005 0.002068 0.001367
0.704100 -0.008365 -0.000697 0.002250 0.003003 0.002068 0.001369
0.706900 -0.008378 -0.000699 0.002254 0.003001 0.002069 0.001370
0.709600 -0.008389 -0.000701 0.002258 0.003000 0.002070 0.001372
0.712300 -0.008401 -0.000703 0.002262 0.002998 0.002071 0.001374
0.715100 -0.008413 -0.000704 0.002266 0.002996 0.002072 0.001375
0.717800 -0.008425 -0.000706 0.002270 0.002995 0.002073 0.001377
0.720600 -0.008437 -0.000708 0.002275 0.002993 0.002073 0.001379
0.723300 -0.008448 -0.000710 0.002278 0.002992 0.002074 0.001380
0.726000 -0.008460 -0.000711 0.002282 0.002990 0.002075 0.001382
0.728800 -0.008472 -0.000713 0.002286 0.002988 0.002076 0.001383
0.731500 -0.008483 -0.000715 0.002290 0.002987 0.002077 0.001385
0.734300 -0.008495 -0.000717 0.002294 0.002985 0.002078 0.001386
0.737000 -0.008506 -0.000718 0.002298 0.002984 0.002078 0.001388
0.739700 -0.008518 -0.000720 0.002301 0.002982 0.002079 0.001389
0.742500 -0.008529 -0.000722 0.002305 0.002980 0.002080 0.001391
0.745200 -0.008541 -0.000723 0.002309 0.002979 0.002081 0.001392
0.747900 -0.008552 -0.000725 0.002312 0.002977 0.002082 0.001394
0.750700 -0.008564 -0.000727 0.002316 0.002976 0.002082 0.001395
0.753400 -0.008575 -0.000729 0.002319 0.002974 0.002083 0.001397
0.756200 -0.008586 -0.000730 0.002323 0.002973 0.002084 0.001398
0.758900 -0.008598 -0.000732 0.002326 0.002971 0.002085 0.001400
0.761600 -0.008609 -0.000734 0.002330 0.002970 0.002086 0.001401
0.764400 -0.008620 -0.000735 0.002333 0.002968 0.002086 0.001403
0.767100 -0.008631 -0.000737 0.002337 0.002967 0.002087 0.001404
0.769900 -0.008643 -0.000739 0.002340 0.002966 0.002088 0.001405
0.772600 -0.008654 -0.000741 0.002343 0.002964 0.002089 0.001407
0.775300 -0.008665 -0.000742 0.002347 0.002963 0.002089 0.001408
0.778100 -0.008676 -0.000744 0.002350 0.002961 0.002090 0.001409
0.780800 -0.008687 -0.000746 0.002353 0.002960 0.002091 0.001411
0.783600 -0.008698 -0.000748 0.002356 0.002958 0.002092 0.001412
0.786300 -0.008709 -0.000749 0.002360 0.002957 0.002092 0.001413
0.789000 -0.008720 -0.000751 0.002363 0.002956 0.002093 0.001415
0.791800 -0.008731 -0.000753 0.002366 0.002954 0.002094 0.001416
0.794500 -0.008742 -0.000754 0.002369 0.002953 0.002095 0.001417
0.797300 -0.008753 -0.000756 0.002372 0.002952 0.002096 0.001418
0.800000 -0.008764 -0.000758 0.002375 0.002950 0.002096 0.001420
0.802700 -0.008775 -0.000760 0.002378 0.002949 0.002097 0.001421
0.805500 -0.008786 -0.000761 0.002381 0.002948 0.002098 0.001422
0.808200 -0.008796 -0.000763 0.002384 0.002946 0.002098 0.001423
0.811000 -0.008807 -0.000765 0.002387 0.002945 0.002099 0.001424
0.813700 -0.008818 -0.000766 0.002389 0.002944 0.002100 0.001426
0.816400 -0.008829 -0.000768 0.002392 0.002943 0.002101 0.001427
0.819200 -0.008840 -0.000770 0.002395 0.002941 0.002101 0.001428
0.821900 -0.008850 -0.000772 0.002398 0.002940 0.002102 0.001429
0.824700 -0.008861 -0.000773 0.002401 0.002939 0.002103 0.001430
0.827400 -0.008872 -0.000775 0.002403 0.002937 0.002104 0.001431
0.830100 -0.008882 -0.000777 0.002406 0.002936 0.002104 0.001432
0.832900 -0.008893 -0.000779 0.002409 0.002935 0.002105 0.001433
0.835600 -0.008903 -0.000780 0.002411 0.002934 0.002106 0.001435
0.838400 -0.008914 -0.000782 0.002414 0.002933 0.002106 0.001436
0.841100 -0.008925 -0.000784 0.002416 0.002931 0.002107 0.001437
0.843800 -0.008935 -0.000785 0.002419 0.002930 0.002108 0.001438
0.846600 -0.008946 -0.000787 0.002421 0.002929 0.002109 0.001439
